,Datetime,Open,High,Low,Close,Volume,MA_Fast,MA_Slow,TR,ATR,Signal,Position,Capital,Lots_Bought
0,2022-01-03,1.1373846530914307,1.1375917196273804,1.1285407543182373,1.1373459100723267,0,,,0.009050965309143066,,0,,1000000.0,0.0
1,2022-01-04,1.1301988363265991,1.1323001384735107,1.1273448467254639,1.1302244663238525,0,,,0.004955291748046875,,0,0.0,1000000.0,0.0
2,2022-01-05,1.1285407543182373,1.1345586776733398,1.1277644634246826,1.1283625364303589,0,,,0.0067942142486572266,,0,0.0,1000000.0,0.0
3,2022-01-06,1.1312217712402344,1.1330673694610596,1.1285535097122192,1.1313496828079224,0,,,0.004513859748840332,,0,0.0,1000000.0,0.0
4,2022-01-07,1.129586100578308,1.1359764337539673,1.1290504932403564,1.1296881437301636,0,,,0.00692594051361084,,0,0.0,1000000.0,0.0
5,2022-01-10,1.135344386100769,1.1359764337539673,1.1288337707519531,1.1353960037231445,0,,,0.00714266300201416,,0,0.0,1000000.0,0.0
6,2022-01-11,1.1332728862762451,1.136899709701538,1.1315544843673706,1.1330417394638062,0,,,0.0053452253341674805,,0,0.0,1000000.0,0.0
7,2022-01-12,1.1370097398757935,1.1433000564575195,1.1355764865875244,1.1366478204727173,0,,,0.007723569869995117,,0,0.0,1000000.0,0.0
8,2022-01-13,1.1439814567565918,1.1479079723358154,1.1436413526535034,1.144164800643921,0,,,0.004266619682312012,,0,0.0,1000000.0,0.0
9,2022-01-14,1.14565908908844,1.148369312286377,1.1410053968429565,1.1457115411758423,0,,,0.00736391544342041,,0,0.0,1000000.0,0.0
10,2022-01-17,1.1412137746810913,1.143458366394043,1.1393154859542847,1.1410704851150513,0,,,0.004142880439758301,,0,0.0,1000000.0,0.0
11,2022-01-18,1.141291856765747,1.1423349380493164,1.1329647302627563,1.1410574913024902,0,,,0.009370207786560059,,0,0.0,1000000.0,0.0
12,2022-01-19,1.1330032348632812,1.1356796026229858,1.1319515705108643,1.1329647302627563,0,,,0.003728032112121582,,0,0.0,1000000.0,0.0
13,2022-01-20,1.134352684020996,1.136893391609192,1.1330161094665527,1.1343399286270142,0,,,0.00387728214263916,0.006085761955806187,0,0.0,1000000.0,0.0
14,2022-01-21,1.1315417289733887,1.1361054182052612,1.1302244663238525,1.1313753128051758,0,,,0.005880951881408691,0.005859332425253732,0,0.0,1000000.0,0.0
15,2022-01-24,1.1340954303741455,1.1340954303741455,1.1291396617889404,1.1341469287872314,0,,,0.004955768585205078,0.0058593664850507465,0,0.0,1000000.0,0.0
16,2022-01-25,1.132387399673462,1.132502794265747,1.1266844272613525,1.1324130296707153,0,,,0.005818367004394531,0.0057896631104605535,0,0.0,1000000.0,0.0
17,2022-01-26,1.130352258682251,1.1313496828079224,1.1272051334381104,1.130454421043396,0,,,0.004144549369812012,0.005763283797672817,0,0.0,1000000.0,0.0
18,2022-01-27,1.1242270469665527,1.12447988986969,1.1133501529693604,1.1243535280227661,0,,,0.01112973690032959,0.006063554968152728,0,0.0,1000000.0,0.0
19,2022-01-28,1.1146159172058105,1.1170064210891724,1.1123347282409668,1.1147029399871826,0,,,0.004671692848205566,0.005887057100023542,0,0.0,1000000.0,0.0
20,2022-01-31,1.115138053894043,1.121692419052124,1.114504098892212,1.1152374744415283,0,,,0.007188320159912109,0.006018706730433873,0,0.0,1000000.0,0.0
21,2022-02-01,1.12291419506073,1.1279042959213257,1.1222084760665894,1.12296462059021,0,,,0.005695819854736328,0.005873867443629673,0,0.0,1000000.0,0.0
22,2022-02-02,1.1273066997528076,1.132939100265503,1.126697063446045,1.1273956298828125,0,,,0.006242036819458008,0.00601496866771153,0,0.0,1000000.0,0.0
23,2022-02-03,1.1299946308135986,1.1450687646865845,1.1272051334381104,1.1299946308135986,0,,,0.01786363124847412,0.00676494836807251,0,0.0,1000000.0,0.0
24,2022-02-04,1.1435105800628662,1.148369312286377,1.1413440704345703,1.14357590675354,0,,,0.007025241851806641,0.0069708313260759625,0,0.0,1000000.0,0.0
25,2022-02-07,1.1454622745513916,1.1460003852844238,1.1416698694229126,1.145514726638794,0,,,0.0043305158615112305,0.006610853331429618,0,0.0,1000000.0,0.0
26,2022-02-08,1.144086241722107,1.145081877708435,1.1397050619125366,1.1442956924438477,0,,,0.0053768157958984375,0.006728623594556536,0,0.0,1000000.0,0.0
27,2022-02-09,1.1421130895614624,1.1447004079818726,1.1403288841247559,1.142126202583313,0,,,0.004371523857116699,0.006763926574162075,0,0.0,1000000.0,0.0
28,2022-02-10,1.142126202583313,1.1494252681732178,1.1380836963653564,1.142152190208435,0,,,0.011341571807861328,0.007153970854622977,0,0.0,1000000.0,0.0
29,2022-02-11,1.1411746740341187,1.1419005393981934,1.1371259689331055,1.1415525674819946,0,,,0.004774570465087891,0.007141028131757464,0,0.0,1000000.0,0.0
30,2022-02-14,1.1365832090377808,1.136893391609192,1.1292799711227417,1.1365057229995728,0,,,0.007613420486450195,0.007269246237618583,0,0.0,1000000.0,0.0
31,2022-02-15,1.1306078433990479,1.1368803977966309,1.1305822134017944,1.1306334733963013,0,,,0.006298184394836426,0.0074230773108346125,0,0.0,1000000.0,0.0
32,2022-02-16,1.135563611984253,1.1393154859542847,1.1345458030700684,1.1356796026229858,0,,,0.004769682884216309,0.006968787738255092,0,0.0,1000000.0,0.0
33,2022-02-17,1.1373329162597656,1.1386927366256714,1.13275945186615,1.1375269889831543,0,,,0.005933284759521484,0.007058901446206229,0,0.0,1000000.0,0.0
34,2022-02-18,1.1363893747329712,1.137669324874878,1.131580114364624,1.1366478204727173,0,,,0.006089210510253906,0.006980393614087786,0,0.0,1000000.0,0.0
35,2022-02-21,1.131733775138855,1.1385631561279297,1.1314136981964111,1.131721019744873,0,,,0.007149457931518555,0.007084224905286517,0,0.0,1000000.0,0.0
36,2022-02-22,1.1309658288955688,1.1363766193389893,1.1289101839065552,1.1309658288955688,0,,,0.007466435432434082,0.007171681949070522,0,0.0,1000000.0,0.0
37,2022-02-23,1.1330546140670776,1.1359764337539673,1.1307356357574463,1.13291335105896,0,,,0.005240797996520996,0.006270051002502441,0,0.0,1000000.0,0.0
38,2022-02-24,1.1305949687957764,1.1305949687957764,1.1110494136810303,1.1305694580078125,0,,,0.019545555114746094,0.007164359092712402,0,0.0,1000000.0,0.0
39,2022-02-25,1.1190814971923828,1.1266082525253296,1.1168068647384644,1.11906898021698,0,,,0.009801387786865234,0.007555135658809117,0,0.0,1000000.0,0.0
40,2022-02-28,1.118105411529541,1.1244546175003052,1.1143178939819336,1.118105411529541,0,,,0.010136723518371582,0.007895129067557198,0,0.0,1000000.0,0.0
41,2022-03-01,1.1214659214019775,1.1232168674468994,1.1102105379104614,1.1215918064117432,0,,,0.013006329536437988,0.008511900901794434,0,0.0,1000000.0,0.0
42,2022-03-02,1.1131023168563843,1.1141936779022217,1.1058521270751953,1.1132758855819702,0,,,0.008341550827026367,0.00829761368887765,0,0.0,1000000.0,0.0
43,2022-03-03,1.1113580465316772,1.111605167388916,1.1039842367172241,1.1112345457077026,0,,,0.0076209306716918945,0.008500925132206507,0,0.0,1000000.0,0.0
44,2022-03-04,1.1069294214248657,1.1069294214248657,1.0890042781829834,1.1066844463348389,0,,,0.017925143241882324,0.009237476757594518,0,0.0,1000000.0,0.0
45,2022-03-07,1.087393879890442,1.0930753946304321,1.0808590650558472,1.087453007698059,0,,,0.012216329574584961,0.009660201413290841,0,0.0,1000000.0,0.0
46,2022-03-08,1.08695650100708,1.0922157764434814,1.0851165056228638,1.0865312814712524,0,,,0.007099270820617676,0.009826600551605225,0,0.0,1000000.0,0.0
47,2022-03-09,1.0900845527648926,1.1091147661209106,1.0897876024246216,1.0898232460021973,0,,,0.019327163696289062,0.010783306189945765,0,0.0,1000000.0,0.0
48,2022-03-10,1.1073338985443115,1.1116174459457397,1.0982131958007812,1.107382893562317,0,,,0.013404250144958496,0.011305809020996094,0,0.0,1000000.0,0.0
49,2022-03-11,1.1012123823165894,1.104191541671753,1.0934697389602661,1.1013944149017334,0,1.1277866053581238,,0.010721802711486816,0.011560976505279541,0,0.0,1000000.0,0.0
50,2022-03-14,1.0932546854019165,1.0986958742141724,1.0902509689331055,1.093206763267517,0,1.1269038224220276,,0.008444905281066895,0.011630867208753313,0,0.0,1000000.0,0.0
51,2022-03-15,1.094534993171692,1.1018311977386475,1.093948245048523,1.0943193435668945,0,1.1261857199668883,,0.007882952690124512,0.011819592544010707,0,0.0,1000000.0,0.0
52,2022-03-16,1.0967316627502441,1.1038745641708374,1.0955781936645508,1.0969363451004028,0,1.1255571961402893,,0.008296370506286621,0.011016079357692174,0,0.0,1000000.0,0.0
53,2022-03-17,1.102244257926941,1.1110494136810303,1.1021226644515991,1.1021955013275146,0,1.1249741125106811,,0.008926749229431152,0.01095360517501831,0,0.0,1000000.0,0.0
54,2022-03-18,1.1098902225494385,1.1117905378341675,1.1005337238311768,1.1099518537521362,0,1.1245793867111207,,0.011256814002990723,0.011033611638205392,0,0.0,1000000.0,0.0
55,2022-03-21,1.1042159795761108,1.1066721677780151,1.1026087999343872,1.1043134927749634,0,1.123957736492157,,0.00406336784362793,0.01039482866014753,0,0.0,1000000.0,0.0
56,2022-03-22,1.1016370058059692,1.1045695543289185,1.0961546897888184,1.101722002029419,0,1.1233313417434692,,0.008414864540100098,0.010400065353938512,0,0.0,1000000.0,0.0
57,2022-03-23,1.1030100584030151,1.1042001247406006,1.096575379371643,1.1029735803604126,0,1.122657856941223,,0.0076247453689575195,0.010400337832314628,0,0.0,1000000.0,0.0
58,2022-03-24,1.1006306409835815,1.101333737373352,1.0969964265823364,1.1006306409835815,0,1.1217871737480163,,0.004337310791015625,0.009429778371538435,0,0.0,1000000.0,0.0
59,2022-03-25,1.100897192955017,1.1038745641708374,1.0982975959777832,1.1009578704833984,0,1.1208921003341674,,0.005576968193054199,0.008955538272857666,0,0.0,1000000.0,0.0
60,2022-03-28,1.098189115524292,1.0996744632720947,1.094534993171692,1.098189115524292,0,1.1200344729423524,,0.005139470100402832,0.008815552507128035,0,0.0,1000000.0,0.0
61,2022-03-29,1.0993843078613281,1.1136353015899658,1.097044587135315,1.0993843078613281,0,1.119201009273529,,0.01659071445465088,0.008620091847011022,0,0.0,1000000.0,0.0
62,2022-03-30,1.1091516017913818,1.1170001029968262,1.108905553817749,1.1091516017913818,0,1.1187247467041015,,0.008094549179077148,0.008240827492305211,0,0.0,1000000.0,0.0
63,2022-03-31,1.1161835193634033,1.1183055639266968,1.1074001789093018,1.1161835193634033,0,1.1183616185188294,,0.01090538501739502,0.008253940514155797,0,0.0,1000000.0,0.0
64,2022-04-01,1.1072357892990112,1.1075423955917358,1.1029735803604126,1.1072357892990112,0,1.117878828048706,,0.004568815231323242,0.007977076939174108,0,0.0,1000000.0,0.0
65,2022-04-04,1.1047282218933105,1.1057054996490479,1.0980926752090454,1.1047282218933105,0,1.1172904539108277,,0.007612824440002441,0.007957782064165388,0,0.0,1000000.0,0.0
66,2022-04-05,1.0975863933563232,1.0991426706314087,1.092132329940796,1.0975863933563232,0,1.1165939211845397,,0.007010340690612793,0.007865922791617257,0,0.0,1000000.0,0.0
67,2022-04-06,1.090643286705017,1.0937448740005493,1.0875712633132935,1.090643286705017,0,1.1157976984977722,,0.006173610687255859,0.007669270038604736,0,0.0,1000000.0,0.0
68,2022-04-07,1.0898232460021973,1.0935057401657104,1.08672034740448,1.0898232460021973,0,1.1151070928573608,,0.006785392761230469,0.007349882807050433,0,0.0,1000000.0,0.0
69,2022-04-08,1.0864840745925903,1.0891940593719482,1.0836936235427856,1.0864840745925903,0,1.114542715549469,,0.005500435829162598,0.007452530520302909,0,0.0,1000000.0,0.0
70,2022-04-11,1.0884946584701538,1.0932785272598267,1.0874648094177246,1.0884946584701538,0,1.1140078592300415,,0.005813717842102051,0.007266734327588763,0,0.0,1000000.0,0.0
71,2022-04-12,1.0877959728240967,1.0903936624526978,1.0851871967315674,1.0877959728240967,0,1.1133044862747192,,0.005206465721130371,0.007094000067029681,0,0.0,1000000.0,0.0
72,2022-04-13,1.0826143026351929,1.0873819589614868,1.0810343027114868,1.0826143026351929,0,1.1124088597297668,,0.00634765625,0.00723759617124285,0,0.0,1000000.0,0.0
73,2022-04-14,1.089656949043274,1.0922634601593018,1.0758588314056396,1.089656949043274,0,1.1116021060943604,,0.01640462875366211,0.008011000497000558,0,0.0,1000000.0,0.0
74,2022-04-15,1.0820988416671753,1.0823447704315186,1.0798786878585815,1.0820988416671753,0,1.110372564792633,,0.0024660825729370117,0.007820044245038713,0,0.0,1000000.0,0.0
75,2022-04-18,1.081525444984436,1.081583857536316,1.0783647298812866,1.081525444984436,0,1.109092779159546,,0.003219127655029297,0.0068649309022086,0,0.0,1000000.0,0.0
76,2022-04-19,1.0781787633895874,1.081209659576416,1.0761945247650146,1.0781787633895874,0,1.1077704405784607,,0.005015134811401367,0.006644972733088902,0,0.0,1000000.0,0.0
77,2022-04-20,1.0794472694396973,1.08672034740448,1.0784810781478882,1.0794472694396973,0,1.1065168619155883,,0.008239269256591797,0.006454535893031529,0,0.0,1000000.0,0.0
78,2022-04-21,1.0849870443344116,1.0934697389602661,1.082438588142395,1.0849870443344116,0,1.105373558998108,,0.011031150817871094,0.006916131292070661,0,0.0,1000000.0,0.0
79,2022-04-22,1.0835175514221191,1.0854227542877197,1.077284336090088,1.0835175514221191,0,1.1042128586769104,,0.008138418197631836,0.0069536737033299035,0,0.0,1000000.0,0.0
80,2022-04-25,1.0811045169830322,1.081221342086792,1.0700336694717407,1.0811045169830322,0,1.1031048345565795,,0.01118767261505127,0.007252054555075509,0,0.0,1000000.0,0.0
81,2022-04-26,1.0714209079742432,1.0738831758499146,1.0644639730453491,1.0714209079742432,0,1.1019205832481385,,0.00941920280456543,0.0074838825634547645,0,0.0,1000000.0,0.0
82,2022-04-27,1.0643619298934937,1.0656436681747437,1.0516685247421265,1.0643619298934937,0,1.1004942297935485,,0.013975143432617188,0.00799743618283953,0,0.0,1000000.0,0.0
83,2022-04-28,1.0555092096328735,1.056222677230835,1.0472848415374756,1.0555092096328735,0,1.098853874206543,,0.008937835693359375,0.008242964744567871,0,0.0,1000000.0,0.0
84,2022-04-29,1.0504201650619507,1.0590416193008423,1.0505415201187134,1.0504201650619507,0,1.0971293210983277,,0.008500099182128906,0.00843484912599836,0,0.0,1000000.0,0.0
85,2022-05-02,1.0535964965820312,1.056769609451294,1.0503981113433838,1.0535964965820312,0,1.0955668306350708,,0.006371498107910156,0.00851806572505406,0,0.0,1000000.0,0.0
86,2022-05-03,1.0509058237075806,1.0577645301818848,1.0494390726089478,1.0509058237075806,0,1.093965630531311,,0.008325457572937012,0.008659337248120989,0,0.0,1000000.0,0.0
87,2022-05-04,1.0528532266616821,1.0566357374191284,1.0506519079208374,1.0528532266616821,0,1.0923644280433655,,0.005983829498291016,0.00791499444416591,0,0.0,1000000.0,0.0
88,2022-05-05,1.0622477531433105,1.0639996528625488,1.0504642724990845,1.0622477531433105,0,1.0909979939460754,,0.013535380363464355,0.008705658572060722,0,0.0,1000000.0,0.0
89,2022-05-06,1.0539740324020386,1.0598385334014893,1.048536777496338,1.0539740324020386,0,1.0896960949897767,,0.011301755905151367,0.009282989161355155,0,0.0,1000000.0,0.0
90,2022-05-09,1.053219199180603,1.0572165250778198,1.0496593713760376,1.053219199180603,0,1.0883983707427978,,0.0075571537017822266,0.009464561939239502,0,0.0,1000000.0,0.0
91,2022-05-10,1.056579828262329,1.0585819482803345,1.0527312755584717,1.056579828262329,0,1.0870981311798096,,0.005850672721862793,0.009293947901044573,0,0.0,1000000.0,0.0
92,2022-05-11,1.0532968044281006,1.0575631856918335,1.0507071018218994,1.0532968044281006,0,1.0858985495567322,,0.006856083869934082,0.008995728833334786,0,0.0,1000000.0,0.0
93,2022-05-12,1.05124831199646,1.0529751777648926,1.0373551845550537,1.05124831199646,0,1.0846988248825074,,0.015619993209838867,0.009530127048492432,0,0.0,1000000.0,0.0
94,2022-05-13,1.0379581451416016,1.041938066482544,1.0351966619491577,1.0379581451416016,0,1.0833242988586427,,0.0067414045333862305,0.009212536471230643,0,0.0,1000000.0,0.0
95,2022-05-16,1.0400632619857788,1.0437977313995361,1.0391337871551514,1.0400632619857788,0,1.0823765039443969,,0.004663944244384766,0.008872875145503454,0,0.0,1000000.0,0.0
96,2022-05-17,1.0438958406448364,1.055375576019287,1.0432424545288086,1.0438958406448364,0,1.0815237951278687,,0.012133121490478516,0.008741302149636405,0,0.0,1000000.0,0.0
97,2022-05-18,1.0547856092453003,1.0564124584197998,1.0492409467697144,1.0547856092453003,0,1.0808230423927307,,0.007171511650085449,0.00861513614654541,0,0.0,1000000.0,0.0
98,2022-05-19,1.0472739934921265,1.0598047971725464,1.0466053485870361,1.0472739934921265,0,1.079620864391327,,0.013199448585510254,0.008950803961072649,0,0.0,1000000.0,0.0
99,2022-05-20,1.057898759841919,1.05988347530365,1.0541073083877563,1.057898759841919,0,1.0787509512901305,,0.005776166915893555,0.008908280304500036,0,0.0,1000000.0,0.0
100,2022-05-23,1.0569819211959839,1.069027066230774,1.0568702220916748,1.0569819211959839,0,1.0780264544487,,0.012156844139099121,0.009181950773511614,0,0.0,1000000.0,0.0
101,2022-05-24,1.0682048797607422,1.0746333599090576,1.0662003755569458,1.0682048797607422,0,1.077504165172577,,0.008432984352111816,0.009356890405927385,0,0.0,1000000.0,0.0
102,2022-05-25,1.0736525058746338,1.0736525058746338,1.064407229423523,1.0736525058746338,0,1.0770384883880615,,0.00924527645111084,0.00905045441218785,0,0.0,1000000.0,0.0
103,2022-05-26,1.0686614513397217,1.0728693008422852,1.0664504766464233,1.0686614513397217,0,1.0763678073883056,,0.006418824195861816,0.008701673575810023,0,0.0,1000000.0,0.0
104,2022-05-27,1.0732953548431396,1.0765074491500854,1.0698047876358032,1.0732953548431396,0,1.0756346774101258,,0.0067026615142822266,0.008640638419560023,0,0.0,1000000.0,0.0
105,2022-05-30,1.0731456279754639,1.078515887260437,1.0727427005767822,1.0731456279754639,0,1.0750113201141358,,0.005773186683654785,0.008635103702545166,0,0.0,1000000.0,0.0
106,2022-05-31,1.0773539543151855,1.0774933099746704,1.068216323852539,1.0773539543151855,0,1.074523959159851,,0.009276986122131348,0.008808025291987829,0,0.0,1000000.0,0.0
107,2022-06-01,1.0734105110168457,1.0736640691757202,1.063173770904541,1.0734105110168457,0,1.0739326977729797,,0.0104902982711792,0.008441618510654994,0,0.0,1000000.0,0.0
108,2022-06-02,1.0654165744781494,1.0738486051559448,1.064565896987915,1.0654165744781494,0,1.0732284164428711,,0.009282708168029785,0.00862314019884382,0,0.0,1000000.0,0.0
109,2022-06-03,1.0751069784164429,1.0765421390533447,1.0706638097763062,1.0751069784164429,0,1.072711398601532,,0.005878329277038574,0.00870988198689052,0,0.0,1000000.0,0.0
110,2022-06-06,1.0726046562194824,1.0752688646316528,1.0686043500900269,1.0726046562194824,0,1.0721997094154359,,0.0066645145416259766,0.008319267204829625,0,0.0,1000000.0,0.0
111,2022-06-07,1.0691413879394531,1.0708931684494019,1.0652804374694824,1.0691413879394531,0,1.0715948510169984,,0.005612730979919434,0.008207925728389196,0,0.0,1000000.0,0.0
112,2022-06-08,1.0698620080947876,1.0748296976089478,1.0673270225524902,1.0698620080947876,0,1.0708090591430663,,0.0075026750564575195,0.007801013333456857,0,0.0,1000000.0,0.0
113,2022-06-09,1.071765422821045,1.0770059823989868,1.0647132396697998,1.071765422821045,0,1.0699206972122193,,0.012292742729187012,0.008266483034406389,0,0.0,1000000.0,0.0
114,2022-06-10,1.0619205236434937,1.0642147064208984,1.0507733821868896,1.0619205236434937,0,1.0690143918991089,,0.013441324234008789,0.008358231612614222,0,0.0,1000000.0,0.0
115,2022-06-13,1.0489987134933472,1.0497585535049438,1.041905403137207,1.0489987134933472,0,1.0678998017311097,,0.007853150367736816,0.00831681489944458,0,0.0,1000000.0,0.0
116,2022-06-14,1.0415147542953491,1.0482399463653564,1.0398253202438354,1.0415147542953491,0,1.0667783689498902,,0.008414626121520996,0.008257482733045305,0,0.0,1000000.0,0.0
117,2022-06-15,1.0440592765808105,1.0507181882858276,1.0386265516281128,1.0440592765808105,0,1.065846688747406,,0.012091636657714844,0.008662683623177665,0,0.0,1000000.0,0.0
118,2022-06-16,1.0456204414367676,1.0530306100845337,1.0382598638534546,1.0456204414367676,0,1.0649626326560975,,0.014770746231079102,0.009238975388663155,0,0.0,1000000.0,0.0
119,2022-06-17,1.0546854734420776,1.0551751852035522,1.0445609092712402,1.0546854734420776,0,1.0643266606330872,,0.010614275932312012,0.009584767477852958,0,0.0,1000000.0,0.0
120,2022-06-20,1.049141764640808,1.0545185804367065,1.048635721206665,1.049141764640808,0,1.0635396027565003,,0.005882859230041504,0.009342329842703683,0,0.0,1000000.0,0.0
121,2022-06-21,1.0520778894424438,1.058189868927002,1.0514252185821533,1.0520778894424438,0,1.0628252410888672,,0.006764650344848633,0.00907621213368007,0,0.0,1000000.0,0.0
122,2022-06-22,1.053263545036316,1.0602879524230957,1.0471861362457275,1.053263545036316,0,1.0622382259368897,,0.013101816177368164,0.009349005562918527,0,0.0,1000000.0,0.0
123,2022-06-23,1.0564124584197998,1.058066725730896,1.0484488010406494,1.0564124584197998,0,1.0615733361244202,,0.009617924690246582,0.009616119521004813,0,0.0,1000000.0,0.0
124,2022-06-24,1.052011489868164,1.0569148063659668,1.0513699054718018,1.052011489868164,0,1.06097158908844,,0.005544900894165039,0.009536147117614746,0,0.0,1000000.0,0.0
125,2022-06-27,1.0566133260726929,1.0614246129989624,1.0550860166549683,1.0566133260726929,0,1.060473346710205,,0.006338596343994141,0.009587994643620082,0,0.0,1000000.0,0.0
126,2022-06-28,1.0580891370773315,1.0605015754699707,1.0505746603012085,1.0580891370773315,0,1.06007155418396,,0.009926915168762207,0.009761154651641846,0,0.0,1000000.0,0.0
127,2022-06-29,1.0523545742034912,1.053629755973816,1.0468025207519531,1.0523545742034912,0,1.0595297002792359,,0.006827235221862793,0.009370761258261544,0,0.0,1000000.0,0.0
128,2022-06-30,1.04465913772583,1.047877550125122,1.0383893251419067,1.04465913772583,0,1.0587231421470642,,0.009488224983215332,0.009088397026062012,0,0.0,1000000.0,0.0
129,2022-07-01,1.0477677583694458,1.0477896928787231,1.036989450454712,1.0477677583694458,0,1.0580081462860107,,0.01080024242401123,0.009298903601510184,0,0.0,1000000.0,0.0
130,2022-07-04,1.0433948040008545,1.0463534593582153,1.041807770729065,1.0433948040008545,0,1.0572539520263673,,0.004545688629150391,0.009022550923483712,0,0.0,1000000.0,0.0
131,2022-07-05,1.0433186292648315,1.0448557138442993,1.0237300395965576,1.0433186292648315,0,1.056691906452179,,0.0211256742477417,0.009667839322771345,0,0.0,1000000.0,0.0
132,2022-07-06,1.0257673263549805,1.0273902416229248,1.0162187814712524,1.0257673263549805,0,1.0559200143814087,,0.011171460151672363,0.009410747459956579,0,0.0,1000000.0,0.0
133,2022-07-07,1.0186411142349243,1.0219202041625977,1.015331506729126,1.0186411142349243,0,1.0551826524734498,,0.00658869743347168,0.00912320613861084,0,0.0,1000000.0,0.0
134,2022-07-08,1.0169836282730103,1.0191082954406738,1.007973074913025,1.0169836282730103,0,1.054513921737671,,0.011135220527648926,0.009498374802725655,0,0.0,1000000.0,0.0
135,2022-07-11,1.0166114568710327,1.0167768001556396,1.0054292678833008,1.0166114568710327,0,1.0537742209434509,,0.011347532272338867,0.0098257235118321,0,0.0,1000000.0,0.0
136,2022-07-12,1.004752516746521,1.007384181022644,1.0001100301742554,1.004752516746521,0,1.0528511548042296,,0.007274150848388672,0.00940946170261928,0,0.0,1000000.0,0.0
137,2022-07-13,1.0033109188079834,1.011623501777649,0.9998899698257446,1.0033109188079834,0,1.0518603086471559,,0.011733531951904297,0.009560576507023402,0,0.0,1000000.0,0.0
138,2022-07-14,1.0032706260681152,1.0049240589141846,0.9953616261482239,1.0032706260681152,0,1.0506807661056519,,0.009562432765960693,0.00984754306929452,0,0.0,1000000.0,0.0
139,2022-07-15,1.0025665760040283,1.009795069694519,1.0010610818862915,1.0025665760040283,0,1.0496526169776916,,0.008733987808227539,0.010018642459596907,0,0.0,1000000.0,0.0
140,2022-07-18,1.009631872177124,1.0198878049850464,1.008237361907959,1.009631872177124,0,1.048780870437622,,0.011650443077087402,0.010141751595905848,0,0.0,1000000.0,0.0
141,2022-07-19,1.0145177841186523,1.0268205404281616,1.0125659704208374,1.0145177841186523,0,1.0479396295547485,,0.014254570007324219,0.010672275509153093,0,0.0,1000000.0,0.0
142,2022-07-20,1.0231330394744873,1.0271897315979004,1.0175942182540894,1.0231330394744873,0,1.0473363542556762,,0.009595513343811035,0.010679938963481359,0,0.0,1000000.0,0.0
143,2022-07-21,1.0182781219482422,1.0275379419326782,1.016311764717102,1.0182781219482422,0,1.046676950454712,,0.011226177215576172,0.010710362877164568,0,0.0,1000000.0,0.0
144,2022-07-22,1.0221081972122192,1.025514841079712,1.0133970975875854,1.0221081972122192,0,1.0463599514961244,,0.012117743492126465,0.011251223938805717,0,0.0,1000000.0,0.0
145,2022-07-25,1.0200231075286865,1.0256409645080566,1.0180604457855225,1.0200231075286865,0,1.0459591484069823,,0.00758051872253418,0.010283712829862322,0,0.0,1000000.0,0.0
146,2022-07-26,1.022494912147522,1.0249052047729492,1.011398434638977,1.022494912147522,0,1.0455311298370362,,0.013506770133972168,0.01045052068574088,0,0.0,1000000.0,0.0
147,2022-07-27,1.0129557847976685,1.0171905755996704,1.0107442140579224,1.0129557847976685,0,1.0446945333480835,,0.006446361541748047,0.010440353836332048,0,0.0,1000000.0,0.0
148,2022-07-28,1.0209290981292725,1.0233110189437866,1.0115723609924316,1.0209290981292725,0,1.0441676354408265,,0.01173865795135498,0.01048345650945391,0,0.0,1000000.0,0.0
149,2022-07-29,1.0192328691482544,1.0253781080245972,1.014857530593872,1.0192328691482544,0,1.0433943176269531,,0.010520577430725098,0.010424388306481498,0,0.0,1000000.0,0.0
150,2022-08-01,1.0208247900009155,1.0277491807937622,1.0209603309631348,1.0208247900009155,0,1.0426711750030517,,0.006788849830627441,0.010389723948069982,0,0.0,1000000.0,0.0
151,2022-08-02,1.0261356830596924,1.0293148756027222,1.0183714628219604,1.0261356830596924,0,1.0418297910690308,,0.010943412780761719,0.01033328686441694,0,0.0,1000000.0,0.0
152,2022-08-03,1.015568733215332,1.020762324333191,1.0123199224472046,1.015568733215332,0,1.0406681156158448,,0.008442401885986328,0.010253284658704485,0,0.0,1000000.0,0.0
153,2022-08-04,1.015764594078064,1.0232481956481934,1.0155996084213257,1.015764594078064,0,1.0396101784706115,,0.007648587226867676,0.010175756045750209,0,0.0,1000000.0,0.0
154,2022-08-05,1.024779200553894,1.0249052047729492,1.014363408088684,1.024779200553894,0,1.0386398553848266,,0.010541796684265137,0.010096567017691476,0,0.0,1000000.0,0.0
155,2022-08-08,1.0170871019363403,1.0221813917160034,1.0160020589828491,1.0170871019363403,0,1.037518684864044,,0.006179332733154297,0.009519764355250768,0,0.0,1000000.0,0.0
156,2022-08-09,1.0197629928588867,1.0246951580047607,1.0189213752746582,1.0197629928588867,0,1.0363668656349183,,0.005773782730102539,0.009246783597128732,0,0.0,1000000.0,0.0
157,2022-08-10,1.0208144187927246,1.0369141101837158,1.0203040838241577,1.0208144187927246,0,1.0353149437904359,,0.016610026359558105,0.0096313442502703,0,0.0,1000000.0,0.0
158,2022-08-11,1.0300782918930054,1.036591649055481,1.0276330709457397,1.0300782918930054,0,1.0346081781387328,,0.008958578109741211,0.009405689580099923,0,0.0,1000000.0,0.0
159,2022-08-12,1.0316723585128784,1.0327378511428833,1.0239607095718384,1.0316723585128784,0,1.0337394857406617,,0.008777141571044922,0.009491162640707833,0,0.0,1000000.0,0.0
160,2022-08-15,1.0256409645080566,1.0267151594161987,1.0182262659072876,1.0256409645080566,0,1.032800211906433,,0.008488893508911133,0.009132742881774902,0,0.0,1000000.0,0.0
161,2022-08-16,1.0161981582641602,1.019440770149231,1.0123404264450073,1.0161981582641602,0,1.0317413473129273,,0.007100343704223633,0.009179455893380302,0,0.0,1000000.0,0.0
162,2022-08-17,1.0170663595199585,1.019783854484558,1.0148060321807861,1.0170663595199585,0,1.0306854343414307,,0.004977822303771973,0.008696539061410087,0,0.0,1000000.0,0.0
163,2022-08-18,1.0180189609527588,1.0193679332733154,1.0113166570663452,1.0180189609527588,0,1.029610505104065,,0.008051276206970215,0.008520160402570452,0,0.0,1000000.0,0.0
164,2022-08-19,1.0089900493621826,1.011224627494812,1.003623127937317,1.0089900493621826,0,1.0285518956184387,,0.007601499557495117,0.00857820681163243,0,0.0,1000000.0,0.0
165,2022-08-22,1.0035223960876465,1.0048232078552246,0.99277263879776,1.0035223960876465,0,1.0276423692703247,,0.0120505690574646,0.008657289402825492,0,0.0,1000000.0,0.0
166,2022-08-23,0.9939467906951904,1.0019036531448364,0.9903146624565125,0.9939467906951904,0,1.0266910099983215,,0.011588990688323975,0.00888204574584961,0,0.0,1000000.0,0.0
167,2022-08-24,0.9966909885406494,0.9998200535774231,0.9911981225013733,0.9966909885406494,0,1.0257436442375183,,0.008621931076049805,0.008951570306505476,0,0.0,1000000.0,0.0
168,2022-08-25,0.9969095587730408,1.0030593872070312,0.995678722858429,0.9969095587730408,0,1.0247694265842437,,0.007380664348602295,0.008725775139672416,0,0.0,1000000.0,0.0
169,2022-08-26,0.9971283078193665,1.0088272094726562,0.9947279095649719,0.9971283078193665,0,1.0236182832717895,,0.014099299907684326,0.009291487080710275,0,0.0,1000000.0,0.0
170,2022-08-29,0.993867814540863,1.0031095743179321,0.9914930462837219,0.993867814540863,0,1.0225128042697906,,0.011616528034210205,0.009708826031003679,0,0.0,1000000.0,0.0
171,2022-08-30,1.0014019012451172,1.0052272081375122,0.998342752456665,1.0014019012451172,0,1.0214992845058442,,0.006884455680847168,0.009014142411095756,0,0.0,1000000.0,0.0
172,2022-08-31,1.0025062561035156,1.0077394247055054,0.9971680045127869,1.0025062561035156,0,1.0204841387271881,,0.010571420192718506,0.009129345417022705,0,0.0,1000000.0,0.0
173,2022-09-01,1.003905177116394,1.0045808553695679,0.9917388558387756,1.003905177116394,0,1.01943399310112,,0.012841999530792236,0.009419692414147514,0,0.0,1000000.0,0.0
174,2022-09-02,0.995232880115509,1.0033310651779175,0.9951239228248596,0.995232880115509,0,1.0182984209060668,,0.008207142353057861,0.009399567331586565,0,0.0,1000000.0,0.0
175,2022-09-05,0.9909427762031555,0.9943521022796631,0.9880836606025696,0.9909427762031555,0,1.0169850099086761,,0.006268441677093506,0.009340145758220128,0,0.0,1000000.0,0.0
176,2022-09-06,0.9952229857444763,0.9985321760177612,0.9865143895149231,0.9952229857444763,0,1.015727686882019,,0.012017786502838135,0.009843000343867711,0,0.0,1000000.0,0.0
177,2022-09-07,0.9897951483726501,0.9955201148986816,0.9877811670303345,0.9897951483726501,0,1.0144764983654022,,0.007738947868347168,0.009820691176823207,0,0.0,1000000.0,0.0
178,2022-09-08,0.9995701909065247,1.00290846824646,0.9933445453643799,0.9995701909065247,0,1.0135747194290161,,0.009563922882080078,0.009960864271436418,0,0.0,1000000.0,0.0
179,2022-09-09,1.0012015104293823,1.011224627494812,1.000930905342102,1.0012015104293823,0,1.012643394470215,,0.010293722152709961,0.009835375206811088,0,0.0,1000000.0,0.0
180,2022-09-12,1.0071406364440918,1.0196797847747803,1.0064716339111328,1.0071406364440918,0,1.0119183111190795,,0.013208150863647461,0.009951029505048479,0,0.0,1000000.0,0.0
181,2022-09-13,1.0129557847976685,1.018744945526123,0.9995802044868469,1.0129557847976685,0,1.0113110542297363,,0.019164741039276123,0.010704087359564645,0,0.0,1000000.0,0.0
182,2022-09-14,0.9982032775878906,1.0022751092910767,0.9963633418083191,0.9982032775878906,0,1.0107597732543945,,0.005911767482757568,0.01059916615486145,0,0.0,1000000.0,0.0
183,2022-09-15,0.9984025359153748,1.0017931461334229,0.9957482218742371,0.9984025359153748,0,1.0103550016880036,,0.006044924259185791,0.010023853608540126,0,0.0,1000000.0,0.0
184,2022-09-16,0.9988313317298889,1.0035626888275146,0.994579553604126,0.9988313317298889,0,1.009991955757141,,0.008983135223388672,0.009835754122052873,0,0.0,1000000.0,0.0
185,2022-09-19,1.002234935760498,1.002807855606079,0.9966810345649719,1.002234935760498,0,1.0097044253349303,,0.006126821041107178,0.009781637362071447,0,0.0,1000000.0,0.0
186,2022-09-20,1.0029587745666504,1.0050251483917236,0.9957084655761719,1.0029587745666504,0,1.009668550491333,,0.009316682815551758,0.009692013263702393,0,0.0,1000000.0,0.0
187,2022-09-21,0.997078537940979,0.9974067807197571,0.9869135022163391,0.997078537940979,0,1.009543902873993,,0.010493278503417969,0.009524247476032801,0,0.0,1000000.0,0.0
188,2022-09-22,0.983071506023407,0.9906188249588013,0.9811038970947266,0.983071506023407,0,1.0091399204730989,,0.009514927864074707,0.009617660726819719,0,0.0,1000000.0,0.0
189,2022-09-23,0.9841550588607788,0.9852216839790344,0.9703933596611023,0.9841550588607788,0,1.0087716901302337,,0.014828324317932129,0.01022908091545105,0,0.0,1000000.0,0.0
190,2022-09-26,0.968992292881012,0.9699885249137878,0.9582307934761047,0.968992292881012,0,1.0079588985443115,,0.011757731437683105,0.010210505553654261,0,0.0,1000000.0,0.0
191,2022-09-27,0.9623712301254272,0.9670057892799377,0.9594534635543823,0.9623712301254272,0,1.006915967464447,,0.00755232572555542,0.010197175400597709,0,0.0,1000000.0,0.0
192,2022-09-28,0.9596191644668579,0.9686262011528015,0.954016387462616,0.9596191644668579,0,1.0056456899642945,,0.014609813690185547,0.010557596172605242,0,0.0,1000000.0,0.0
193,2022-09-29,0.9708172082901001,0.9787322282791138,0.9638276100158691,0.9708172082901001,0,1.0046964716911315,,0.014904618263244629,0.01088694589478629,0,0.0,1000000.0,0.0
194,2022-09-30,0.9829555749893188,0.9849985241889954,0.9736055731773376,0.9829555749893188,0,1.0039134192466737,,0.011392951011657715,0.010757288762501307,0,0.0,1000000.0,0.0
195,2022-10-03,0.9792688488960266,0.9844263195991516,0.9753623604774475,0.9792688488960266,0,1.0030983340740205,,0.009063959121704102,0.010035804339817591,0,0.0,1000000.0,0.0
196,2022-10-04,0.9832068681716919,0.998013973236084,0.9806710481643677,0.9832068681716919,0,1.0023125731945037,,0.01734292507171631,0.010852315596171789,0,0.0,1000000.0,0.0
197,2022-10-05,0.998432457447052,0.9994204044342041,0.9835453629493713,0.998432457447052,0,1.0020221066474915,,0.015875041484832764,0.011554466826575143,0,0.0,1000000.0,0.0
198,2022-10-06,0.9910998940467834,0.9926347136497498,0.9789333343505859,0.9910998940467834,0,1.0014255225658417,,0.013701379299163818,0.011891484260559082,0,0.0,1000000.0,0.0
199,2022-10-07,0.9789045453071594,0.9816046953201294,0.9731696844100952,0.9789045453071594,0,1.0006189560890197,1.062637707591057,0.00843501091003418,0.012056354965482439,0,0.0,1000000.0,0.0
200,2022-10-10,0.9735012650489807,0.9752291440963745,0.96825110912323,0.9735012650489807,0,0.9996724855899811,1.0618184843659402,0.006978034973144531,0.01188930869102478,0,0.0,1000000.0,0.0
201,2022-10-11,0.9710057377815247,0.975809633731842,0.9673987030982971,0.9710057377815247,0,0.9985698866844177,1.0610223907232283,0.008410930633544922,0.01174056955746242,0,0.0,1000000.0,0.0
202,2022-10-12,0.9700167775154114,0.9733022451400757,0.9669683575630188,0.9700167775154114,0,0.9976588475704193,1.0602306619286537,0.006333887577056885,0.011513352394104004,0,0.0,1000000.0,0.0
203,2022-10-13,0.9707984328269958,0.979508638381958,0.9635953307151794,0.9707984328269958,0,0.9967595243453979,1.059427905678749,0.015913307666778564,0.011590851204735892,0,0.0,1000000.0,0.0
204,2022-10-14,0.975134015083313,0.9803825616836548,0.9709492325782776,0.975134015083313,0,0.9957666206359863,1.058655135035515,0.009433329105377197,0.011424822466714042,0,0.0,1000000.0,0.0
205,2022-10-17,0.973937451839447,0.9847074747085571,0.9724504947662354,0.973937451839447,0,0.9949036276340485,1.0578478422760964,0.012256979942321777,0.011760869196483068,0,0.0,1000000.0,0.0
206,2022-10-18,0.9846396446228027,0.9873617887496948,0.9814602136611938,0.9846396446228027,0,0.9942011606693267,1.0571058318018913,0.0059015750885009766,0.011138852153505598,0,0.0,1000000.0,0.0
207,2022-10-19,0.9863878488540649,0.9866993427276611,0.9760192036628723,0.9863878488540649,0,0.9935126292705536,1.0563545319437981,0.010680139064788818,0.010837103639330183,0,0.0,1000000.0,0.0
208,2022-10-20,0.9766482710838318,0.9845135807991028,0.9755526185035706,0.9766482710838318,0,0.9924440288543701,1.0555169492959977,0.008960962295532227,0.010663390159606934,0,0.0,1000000.0,0.0
209,2022-10-21,0.9778899550437927,0.9856975078582764,0.9707323908805847,0.9778899550437927,0,0.9913683807849885,1.0546778413653373,0.01496511697769165,0.011084901435034615,0,0.0,1000000.0,0.0
210,2022-10-24,0.9860085844993591,0.9889631271362305,0.9808922410011292,0.9860085844993591,0,0.9905757331848144,1.053902531862259,0.008070886135101318,0.010422612939562117,0,0.0,1000000.0,0.0
211,2022-10-25,0.9886503219604492,0.9975360631942749,0.9852216839790344,0.9886503219604492,0,0.9900247764587402,1.0531404960155486,0.012314379215240479,0.010168279920305525,0,0.0,1000000.0,0.0
212,2022-10-26,0.9963731169700623,1.0080543756484985,0.9944608211517334,0.9963731169700623,0,0.9896109116077423,1.0524575379490853,0.013593554496765137,0.010160578148705619,0,0.0,1000000.0,0.0
213,2022-10-27,1.009193778038025,1.0094891786575317,0.9976455569267273,1.009193778038025,0,0.9894344079494476,1.0518318071961403,0.011843621730804443,0.010404050350189209,0,0.0,1000000.0,0.0
214,2022-10-28,0.9967803955078125,0.9998999834060669,0.9931473135948181,0.9967803955078125,0,0.9891902148723603,1.0511588326096535,0.006752669811248779,0.010387952838625227,0,0.0,1000000.0,0.0
215,2022-10-31,0.9955002665519714,0.9968101382255554,0.9873520135879517,0.9955002665519714,0,0.9890297722816467,1.0504655992984773,0.00945812463760376,0.010462752410343714,0,0.0,1000000.0,0.0
216,2022-11-01,0.9886307716369629,0.9951634407043457,0.9862127304077148,0.9886307716369629,0,0.9889234519004821,1.0497466880083084,0.00895071029663086,0.010649668318884713,0,0.0,1000000.0,0.0
217,2022-11-02,0.9877909421920776,0.9913553595542908,0.9867576956748962,0.9877909421920776,0,0.9887454509735107,1.0490333706140518,0.004597663879394531,0.009841408048357283,0,0.0,1000000.0,0.0
218,2022-11-03,0.9814409017562866,0.9839614629745483,0.9731224179267883,0.9814409017562866,0,0.9884360778331757,1.0483188074827194,0.01083904504776001,0.009941816329956055,0,0.0,1000000.0,0.0
219,2022-11-04,0.9749630093574524,0.993818461894989,0.9748489260673523,0.9749630093574524,0,0.9879927718639374,1.0476201078295708,0.01896953582763672,0.010421284607478551,0,0.0,1000000.0,0.0
220,2022-11-07,0.9928810596466064,1.0005003213882446,0.9919454455375671,0.9928810596466064,0,0.9879730367660522,1.0470083257555962,0.00855487585067749,0.010610806090491158,0,0.0,1000000.0,0.0
221,2022-11-08,1.0018634796142578,1.0094178915023804,0.9976056814193726,1.0018634796142578,0,0.987982268333435,1.0464028200507165,0.011812210083007812,0.01069166830607823,0,0.0,1000000.0,0.0
222,2022-11-09,1.008084774017334,1.0088781118392944,1.0012515783309937,1.008084774017334,0,0.9880938386917114,1.045806265771389,0.007626533508300781,0.010596351964133126,0,0.0,1000000.0,0.0
223,2022-11-10,1.0019538402557373,1.018298864364624,0.9937788844108582,1.0019538402557373,0,0.9880548119544983,1.0451660618185996,0.02451997995376587,0.011278842176709856,0,0.0,1000000.0,0.0
224,2022-11-11,1.0192224979400635,1.0338374376296997,1.016621708869934,1.0192224979400635,0,0.9885346043109894,1.0445442947745323,0.017215728759765625,0.011932045221328735,0,0.0,1000000.0,0.0
225,2022-11-14,1.0328551530838013,1.0350252389907837,1.0273585319519043,1.0328551530838013,0,0.9893728518486022,1.0439809969067573,0.0076667070388793945,0.011600068637302943,0,0.0,1000000.0,0.0
226,2022-11-15,1.0319278240203857,1.0475481748580933,1.031385064125061,1.0319278240203857,0,0.9901069486141205,1.04341915756464,0.016163110733032227,0.01178360836846488,0,0.0,1000000.0,0.0
227,2022-11-16,1.0357863903045654,1.0437324047088623,1.0336451530456543,1.0357863903045654,0,0.9910267734527588,1.0428874585032464,0.010087251663208008,0.011658153363636561,0,0.0,1000000.0,0.0
228,2022-11-17,1.0395010709762573,1.040571928024292,1.0309491157531738,1.0395010709762573,0,0.9918253910541535,1.0423742029070855,0.009622812271118164,0.011863163539341517,0,0.0,1000000.0,0.0
229,2022-11-18,1.036172866821289,1.0395874977111816,1.0328017473220825,1.036172866821289,0,0.9925248181819916,1.041847304403782,0.006785750389099121,0.011672279664448329,0,0.0,1000000.0,0.0
230,2022-11-21,1.0330898761749268,1.0333247184753418,1.022704005241394,1.0330898761749268,0,0.9930438029766083,1.0413302251696586,0.010620713233947754,0.011791565588542394,0,0.0,1000000.0,0.0
231,2022-11-22,1.0245691537857056,1.0290182828903198,1.0243382453918457,1.0245691537857056,0,0.993276070356369,1.0407999035716058,0.004680037498474121,0.011797449418476649,0,0.0,1000000.0,0.0
232,2022-11-23,1.0311086177825928,1.0382059812545776,1.0298130512237549,1.0311086177825928,0,0.9939341771602631,1.0402770486474038,0.008392930030822754,0.011622726917266846,0,0.0,1000000.0,0.0
233,2022-11-24,1.0416233539581299,1.0448229312896729,1.0383676290512085,1.0416233539581299,0,0.9947985935211182,1.0397975304722786,0.0064553022384643555,0.01072885308946882,0,0.0,1000000.0,0.0
234,2022-11-25,1.040810227394104,1.0429050922393799,1.0356147289276123,1.040810227394104,0,0.9956381714344025,1.0393183425068855,0.007290363311767578,0.01063853076526097,0,0.0,1000000.0,0.0
235,2022-11-28,1.0367528200149536,1.0496704578399658,1.0342438220977783,1.0367528200149536,0,0.9963285291194915,1.038843501508236,0.0154266357421875,0.010896704026630946,0,0.0,1000000.0,0.0
236,2022-11-29,1.034554123878479,1.039414644241333,1.032545804977417,1.034554123878479,0,0.9969604361057282,1.0383614429831505,0.006868839263916016,0.010842583009174891,0,0.0,1000000.0,0.0
237,2022-11-30,1.0324499607086182,1.0394577980041504,1.0292301177978516,1.0324499607086182,0,0.9976678645610809,1.0378591260313987,0.010227680206298828,0.009821704455784388,0,0.0,1000000.0,0.0
238,2022-12-01,1.042535424232483,1.053141474723816,1.0397928953170776,1.042535424232483,0,0.9988571429252624,1.0374189558625222,0.013348579406738281,0.009545479501996721,0,0.0,1000000.0,0.0
239,2022-12-02,1.052842140197754,1.0545185804367065,1.0434166193008423,1.052842140197754,0,1.000230884552002,1.037087821662426,0.011101961135864258,0.009790854794638497,0,0.0,1000000.0,0.0
240,2022-12-05,1.0544185638427734,1.0594117641448975,1.0492409467697144,1.0544185638427734,0,1.001939409971237,1.036769387423992,0.010170817375183105,0.009362833840506417,0,0.0,1000000.0,0.0
241,2022-12-06,1.0496923923492432,1.0532081127166748,1.0477018356323242,1.0496923923492432,0,1.0036858332157135,1.0364098903536796,0.005506277084350586,0.00903562137058803,0,0.0,1000000.0,0.0
242,2022-12-07,1.0469011068344116,1.0546187162399292,1.0443755388259888,1.0469011068344116,0,1.0054314720630646,1.036078016459942,0.01024317741394043,0.009079933166503906,0,0.0,1000000.0,0.0
243,2022-12-08,1.051325798034668,1.0563119649887085,1.049163818359375,1.051325798034668,0,1.007041643857956,1.0357784727215766,0.007148146629333496,0.009105818612234933,0,0.0,1000000.0,0.0
244,2022-12-09,1.0559661388397217,1.0588396787643433,1.0520004034042358,1.0559661388397217,0,1.008501855134964,1.0355248811841011,0.006839275360107422,0.008835715906960624,0,0.0,1000000.0,0.0
245,2022-12-12,1.0522217750549316,1.0579211711883545,1.0507071018218994,1.0522217750549316,0,1.009960913658142,1.0353487250208855,0.007214069366455078,0.009016718183244978,0,0.0,1000000.0,0.0
246,2022-12-13,1.0541739463806152,1.066894292831421,1.0529308319091797,1.0541739463806152,0,1.0113802552223206,1.0351869383454322,0.013963460922241211,0.009414613246917725,0,0.0,1000000.0,0.0
247,2022-12-14,1.062665343284607,1.0669853687286377,1.0620108842849731,1.062665343284607,0,1.0126649129390717,1.0350511488318443,0.004974484443664551,0.009308840547289168,0,0.0,1000000.0,0.0
248,2022-12-15,1.0676347017288208,1.0725586414337158,1.0607378482818604,1.0676347017288208,0,1.0141956090927124,1.0348524078726768,0.011820793151855469,0.009632442678724016,0,0.0,1000000.0,0.0
249,2022-12-16,1.064056158065796,1.0663254261016846,1.0599396228790283,1.064056158065796,0,1.0158986413478852,1.0346657165884972,0.00638580322265625,0.008986668927328927,0,0.0,1000000.0,0.0
250,2022-12-19,1.05850350856781,1.0659003257751465,1.0577198266983032,1.05850350856781,0,1.0175986862182618,1.0344922003149986,0.008180499076843262,0.009080358913966588,0,0.0,1000000.0,0.0
251,2022-12-20,1.0614584684371948,1.065552830696106,1.058066725730896,1.0614584684371948,0,1.019407740831375,1.03432789593935,0.007486104965209961,0.008884532111031669,0,0.0,1000000.0,0.0
252,2022-12-21,1.062699317932129,1.0643506050109863,1.0597037076950073,1.062699317932129,0,1.0212613916397095,1.0341567108035088,0.004646897315979004,0.008262983390263148,0,0.0,1000000.0,0.0
253,2022-12-22,1.0610079765319824,1.0657458305358887,1.05840265750885,1.0610079765319824,0,1.0230655825138093,1.033950773179531,0.007343173027038574,0.007994498525347029,0,0.0,1000000.0,0.0
254,2022-12-23,1.060333013534546,1.063117265701294,1.0587948560714722,1.060333013534546,0,1.024769562482834,1.0337026789784431,0.004322409629821777,0.007576755114964077,0,0.0,1000000.0,0.0
255,2022-12-26,1.0667804479599,1.0637166500091553,1.060895323753357,1.0667804479599,0,1.0266264224052428,1.0335150137543678,0.00282132625579834,0.00738497291292463,0,0.0,1000000.0,0.0
256,2022-12-27,1.064022183418274,1.0668998956680298,1.0612443685531616,1.064022183418274,0,1.0282140731811524,1.0333265146613122,0.005655527114868164,0.00705728360584804,0,0.0,1000000.0,0.0
257,2022-12-28,1.0637166500091553,1.067429542541504,1.0613908767700195,1.0637166500091553,0,1.0297606492042541,1.0331302300095557,0.006038665771484375,0.006978034973144531,0,0.0,1000000.0,0.0
258,2022-12-29,1.062925100326538,1.0670194625854492,1.0612331628799438,1.062925100326538,0,1.0314861857891082,1.0329417023062706,0.005786299705505371,0.006902822426387242,0,0.0,1000000.0,0.0
259,2022-12-30,1.066075325012207,1.0697933435440063,1.0639203786849976,1.066075325012207,0,1.0332498931884766,1.0327672895789146,0.005872964859008789,0.0068070292472839355,1,0.0,1000000.0,0.0
260,2023-01-02,1.0709733963012695,1.071237325668335,1.0653257369995117,1.0709733963012695,0,1.0349491894245149,1.0326312109827995,0.005911588668823242,0.006231895514896938,1,1.0,998929.0266036987,0.01
261,2023-01-03,1.0677714347839355,1.068261981010437,1.0521553754806519,1.0677714347839355,0,1.0365316116809844,1.0324731466174126,0.016106605529785156,0.007027047021048409,1,1.0,997861.2551689148,0.02
262,2023-01-04,1.0546854734420776,1.063151240348816,1.0545964241027832,1.0546854734420776,0,1.0376978588104249,1.0322008159756662,0.008554816246032715,0.006793762956346784,1,1.0,996806.5696954727,0.03
263,2023-01-05,1.0606365203857422,1.06326425075531,1.0515578985214233,1.0606365203857422,0,1.0387267136573792,1.0319230809807778,0.011706352233886719,0.007173802171434675,1,1.0,995745.933175087,0.04
264,2023-01-06,1.0522217750549316,1.062225103378296,1.0485258102416992,1.0522217750549316,0,1.0398355412483216,1.0316480109095574,0.01369929313659668,0.007568001747131348,1,1.0,994693.711400032,0.05
265,2023-01-09,1.0656323432922363,1.0759514570236206,1.0652804374694824,1.0656323432922363,0,1.0412381827831267,1.031452531516552,0.010671019554138184,0.007795495646340507,1,1.0,993628.0790567398,0.060000000000000005
266,2023-01-10,1.073318362236023,1.0756852626800537,1.0713175535202026,1.073318362236023,0,1.042931934595108,1.0313311913609504,0.004367709159851074,0.007775553635188511,1,1.0,992554.7606945038,0.07
267,2023-01-11,1.0738946199417114,1.077470064163208,1.0726851224899292,1.0738946199417114,0,1.0446540081501008,1.0312474480271339,0.004784941673278809,0.007592822824205671,1,1.0,991480.8660745621,0.08
268,2023-01-12,1.0766000747680664,1.0838346481323242,1.0738024711608887,1.0766000747680664,0,1.0465571916103362,1.0311813321709633,0.010032176971435547,0.008000663348606654,1,1.0,990404.265999794,0.09
269,2023-01-13,1.0860239267349243,1.0867793560028076,1.0780625343322754,1.0860239267349243,0,1.0487784099578858,1.0311790314316749,0.008716821670532227,0.008421770163944789,1,1.0,989318.2420730591,0.09999999999999999
270,2023-01-16,1.082461953163147,1.0875475406646729,1.080263614654541,1.082461953163147,0,1.0505700278282166,1.03114886790514,0.007283926010131836,0.008538084370749337,1,1.0,988235.7801198959,0.10999999999999999
271,2023-01-17,1.0830129384994507,1.086909294128418,1.0787020921707153,1.0830129384994507,0,1.0521930170059204,1.0311249527335167,0.008207201957702637,0.00869297981262207,1,1.0,987152.7671813965,0.11999999999999998
272,2023-01-18,1.0793308019638062,1.0884472131729126,1.0767043828964233,1.0793308019638062,0,1.0536179375648498,1.0311085352301597,0.011742830276489258,0.009118446281978063,0,1.0,986073.4363794327,0.12999999999999998
273,2023-01-19,1.0797853469848633,1.0833063125610352,1.0782949924468994,1.0797853469848633,0,1.0551745676994324,1.0310591772198676,0.005011320114135742,0.009056900228772844,0,0.0,986073.4363794327,0.12999999999999998
274,2023-01-20,1.083388328552246,1.0856584310531616,1.0804619789123535,1.083388328552246,0,1.056457884311676,1.031065624654293,0.0051964521408081055,0.009005819048200334,0,0.0,986073.4363794327,0.12999999999999998
275,2023-01-23,1.0864723920822144,1.0919533967971802,1.0847516059875488,1.086507797241211,0,1.0575309371948243,1.031090536415577,0.007201790809631348,0.008369760853903634,1,0.0,986073.4363794327,0.12999999999999998
276,2023-01-24,1.0874292850494385,1.089680790901184,1.0839285850524902,1.0874292850494385,0,1.0586409664154053,1.0311367890238763,0.005752205848693848,0.008169574396950858,1,1.0,984986.0070943832,0.13999999999999999
277,2023-01-25,1.088814616203308,1.0922634601593018,1.0858116149902344,1.088814616203308,0,1.0597015309333802,1.0311836257576943,0.006451845169067383,0.007794252463749477,1,1.0,983897.1924781799,0.15
278,2023-01-26,1.0922038555145264,1.0932546854019165,1.0851635932922363,1.0922038555145264,0,1.0607555866241456,1.031219709813595,0.008091092109680176,0.007393666676112584,1,1.0,982804.9886226654,0.16
279,2023-01-27,1.0894432067871094,1.0901559591293335,1.0838816165924072,1.0894432067871094,0,1.061820993423462,1.0312493380904197,0.0062743425369262695,0.007079618317740304,1,1.0,981715.5454158783,0.17
280,2023-01-30,1.0871455669403076,1.0915005207061768,1.0854581594467163,1.0871455669403076,0,1.0629021072387694,1.0312795433402062,0.006042361259460449,0.007199236324855259,1,1.0,980628.399848938,0.18000000000000002
281,2023-01-31,1.0850694179534912,1.0868383646011353,1.0804152488708496,1.0850694179534912,0,1.0641121125221253,1.0313477858901023,0.0064231157302856445,0.007316248757498605,1,1.0,979543.3304309845,0.19000000000000003
282,2023-02-01,1.0860947370529175,1.092442512512207,1.085293173789978,1.0860947370529175,0,1.0652118349075317,1.0314564499258996,0.007149338722229004,0.007110331739698138,1,1.0,978457.2356939316,0.20000000000000004
283,2023-02-02,1.1012852191925049,1.102657437324524,1.088767170906067,1.1012852191925049,0,1.0664050722122191,1.0316853299736977,0.013890266418457031,0.007479863507407052,1,1.0,977355.9504747391,0.21000000000000005
284,2023-02-03,1.0905125141143799,1.094067931175232,1.0811045169830322,1.0905125141143799,0,1.0673991179466247,1.0318857917189599,0.012963414192199707,0.007885541234697615,1,1.0,976265.4379606247,0.22000000000000006
285,2023-02-06,1.079086184501648,1.0800302028656006,1.0718343257904053,1.079086184501648,0,1.0682457852363587,1.032013240158558,0.008195877075195312,0.007884732314518519,1,1.0,975186.351776123,0.23000000000000007
286,2023-02-07,1.0730764865875244,1.0745997428894043,1.0669511556625366,1.0730764865875244,0,1.0690162324905395,1.0321240934729576,0.007648587226867676,0.007592286382402692,1,1.0,974113.2752895355,0.24000000000000007
287,2023-02-08,1.0729728937149048,1.0760208368301392,1.0716849565505981,1.0729728937149048,0,1.0698266911506653,1.0322246918082236,0.004335880279541016,0.007544040679931641,1,1.0,973040.3023958206,0.25000000000000006
288,2023-02-09,1.0715816020965576,1.0790396928787231,1.0711569786071777,1.0715816020965576,0,1.0704076147079469,1.0322713610529899,0.00788271427154541,0.0077359165464128766,1,1.0,971968.7207937241,0.26000000000000006
289,2023-02-10,1.0742292404174805,1.0751763582229614,1.0669283866882324,1.0742292404174805,0,1.0708353567123412,1.0323726370930673,0.008247971534729004,0.007810643741062709,1,1.0,970894.4915533066,0.2700000000000001
290,2023-02-13,1.0677714347839355,1.0725010633468628,1.065723180770874,1.0677714347839355,0,1.0711024141311645,1.0324453982710837,0.0067778825759887695,0.007883906364440918,1,1.0,969826.7201185226,0.2800000000000001
291,2023-02-14,1.0730419158935547,1.0798436403274536,1.0709964036941528,1.0730419158935547,0,1.0715694046020507,1.03252770870924,0.008847236633300781,0.008055005754743303,1,1.0,968753.6782026291,0.2900000000000001
292,2023-02-15,1.0735719203948975,1.0744600296020508,1.0665984153747559,1.0735719203948975,0,1.0721028208732606,1.032629084289074,0.007861614227294922,0.00803861447743007,1,1.0,967680.1062822342,0.3000000000000001
293,2023-02-16,1.0691757202148438,1.0722250938415527,1.0655754804611206,1.0691757202148438,0,1.072459819316864,1.0327187213301658,0.006649613380432129,0.00806541953768049,1,1.0,966610.9305620193,0.3100000000000001
294,2023-02-17,1.0665756464004517,1.0681477785110474,1.0613795518875122,1.0665756464004517,0,1.0726720094680786,1.03286180883646,0.006768226623535156,0.008117267063685827,1,1.0,965544.3549156189,0.3200000000000001
295,2023-02-20,1.0684444904327393,1.0705492496490479,1.0671560764312744,1.0684444904327393,0,1.0729964637756348,1.0330037149786948,0.0033931732177734375,0.007900842598506383,1,1.0,964475.9104251862,0.3300000000000001
296,2023-02-21,1.068261981010437,1.0695644617080688,1.0644866228103638,1.068261981010437,0,1.0732782244682313,1.0331255456805228,0.005077838897705078,0.007752878325326102,1,1.0,963407.6484441757,0.34000000000000014
297,2023-02-22,1.065200924873352,1.0665528774261475,1.0619093179702759,1.065200924873352,0,1.073328936100006,1.0331776222586633,0.004643559455871582,0.007092399256569999,1,1.0,962342.4475193024,0.35000000000000014
298,2023-02-23,1.0605803728103638,1.0630381107330322,1.0582010746002197,1.0605803728103638,0,1.073187849521637,1.0332441541552544,0.0048370361328125,0.006511943680899484,1,1.0,961281.867146492,0.36000000000000015
299,2023-02-24,1.0598047971725464,1.0614246129989624,1.053774118423462,1.0598047971725464,0,1.073102822303772,1.0332536843419076,0.007650494575500488,0.0064729877880641395,1,1.0,960222.0623493195,0.37000000000000016
300,2023-02-27,1.0554758310317993,1.0618642568588257,1.0533522367477417,1.0554758310317993,0,1.0730422687530519,1.0332461538910866,0.008512020111083984,0.006534661565508161,1,1.0,959166.5865182877,0.38000000000000017
301,2023-02-28,1.0611205101013184,1.0645002126693726,1.058234691619873,1.0611205101013184,0,1.0730355095863342,1.0332107320427895,0.006265521049499512,0.006672493049076625,1,1.0,958105.4660081863,0.3900000000000002
302,2023-03-01,1.0577309131622314,1.0691070556640625,1.0565686225891113,1.0577309131622314,0,1.0729361414909362,1.0331311240792274,0.012538433074951172,0.007005044392177037,1,1.0,957047.7350950241,0.4000000000000002
303,2023-03-02,1.066894292831421,1.067270040512085,1.0583466291427612,1.066894292831421,0,1.073053867816925,1.033122288286686,0.00892341136932373,0.007053290094648089,1,1.0,955980.8408021927,0.4100000000000002
304,2023-03-03,1.0599732398986816,1.062925100326538,1.0591312646865845,1.0599732398986816,0,1.0730466723442078,1.0330556777119637,0.0037938356399536133,0.006840143884931292,1,1.0,954920.867562294,0.4200000000000002
305,2023-03-06,1.0626201629638672,1.0693814754486084,1.062304139137268,1.0626201629638672,0,1.072963466644287,1.0330030503869057,0.007077336311340332,0.006713722433362689,1,1.0,953858.2473993301,0.4300000000000002
306,2023-03-07,1.0688328742980957,1.06963312625885,1.0571606159210205,1.0688328742980957,0,1.0730596804618835,1.0329604449868202,0.01247251033782959,0.007043072155543736,1,1.0,952789.414525032,0.4400000000000002
307,2023-03-08,1.05507493019104,1.0573283433914185,1.0526647567749023,1.05507493019104,0,1.0728868460655212,1.0328687670826913,0.004663586616516113,0.006901213100978306,1,1.0,951734.339594841,0.45000000000000023
308,2023-03-09,1.0549525022506714,1.0586491823196411,1.053851842880249,1.0549525022506714,0,1.0727273941040039,1.0328164467215537,0.00479733943939209,0.006760435444968087,1,1.0,950679.3870925903,0.46000000000000024
309,2023-03-10,1.0584698915481567,1.0698620080947876,1.0575743913650513,1.0584698915481567,0,1.0725752854347228,1.0327332612872124,0.012287616729736328,0.007395752838679722,1,1.0,949620.9172010422,0.47000000000000025
310,2023-03-13,1.0683646202087402,1.0737217664718628,1.0652350187301636,1.0683646202087402,0,1.0725231099128723,1.0327120611071587,0.008486747741699219,0.0076392463275364465,1,1.0,948552.5525808334,0.48000000000000026
311,2023-03-14,1.0725010633468628,1.0747140645980835,1.0679652690887451,1.0725010633468628,0,1.0726177024841308,1.0327288594841957,0.006748795509338379,0.0077896203313555035,1,1.0,947480.0515174866,0.49000000000000027
312,2023-03-15,1.0727657079696655,1.0760092735290527,1.052033543586731,1.0727657079696655,0,1.0729793071746827,1.0327433779835702,0.023975729942321777,0.009156669889177595,0,1.0,946407.2858095169,0.5000000000000002
313,2023-03-16,1.0583354234695435,1.063456416130066,1.0555092096328735,1.0583354234695435,0,1.0729332852363587,1.0326762279868127,0.007947206497192383,0.009177863597869873,0,0.0,946407.2858095169,0.5000000000000002
314,2023-03-17,1.0614134073257446,1.0669625997543335,1.0612106323242188,1.0614134073257446,0,1.0731171178817749,1.0326736924052238,0.005751967430114746,0.008980716977800642,1,0.0,946407.2858095169,0.5000000000000002
315,2023-03-20,1.0678855180740356,1.0730534791946411,1.0632416009902954,1.0678855180740356,0,1.0731621813774108,1.0327681264281272,0.009811878204345703,0.009234028203146798,0,1.0,945339.4002914429,0.5100000000000002
316,2023-03-21,1.071914792060852,1.0787253379821777,1.070491909980774,1.071914792060852,0,1.0731341099739076,1.0329201266169548,0.008233428001403809,0.008926527840750558,1,0.0,945339.4002914429,0.5100000000000002
317,2023-03-22,1.0774236917495728,1.0801469087600708,1.0759514570236206,1.0774236917495728,0,1.0732046914100648,1.0330869486927987,0.004195451736450195,0.008588816438402449,1,1.0,944261.9765996933,0.5200000000000002
318,2023-03-23,1.0870392322540283,1.0928997993469238,1.0868619680404663,1.0870392322540283,0,1.0734134745597839,1.0332940426468848,0.0060378313064575195,0.008749101843152727,1,1.0,943174.9373674393,0.5300000000000002
319,2023-03-24,1.0835057497024536,1.0839003324508667,1.0718917846679688,1.0835057497024536,0,1.0733631110191346,1.0334381440281868,0.01200854778289795,0.009101331233978271,0,1.0,942091.4316177368,0.5400000000000003
320,2023-03-27,1.077818512916565,1.0795999765396118,1.074806571006775,1.077818512916565,0,1.0732702422142029,1.0335815277695657,0.004793405532836914,0.008552823747907366,1,0.0,942091.4316177368,0.5400000000000003
321,2023-03-28,1.0807071924209595,1.08489990234375,1.0804035663604736,1.0807071924209595,0,1.073224127292633,1.0337246742844581,0.004496335983276367,0.008540877274104528,1,1.0,941010.7244253159,0.5500000000000003
322,2023-03-29,1.0839520692825317,1.0871999263763428,1.0821340084075928,1.0839520692825317,0,1.0733165526390076,1.0338781169056892,0.00506591796875,0.00856006145477295,1,1.0,939926.7723560333,0.5600000000000003
323,2023-03-30,1.0843634605407715,1.0923947095870972,1.0826963186264038,1.0843634605407715,0,1.0734081149101258,1.034017871916294,0.00969839096069336,0.008375116756984166,1,1.0,938842.4088954926,0.5700000000000003
324,2023-03-31,1.0904649496078491,1.0925856828689575,1.086059331893921,1.0904649496078491,0,1.0735496473312378,1.0342101392149925,0.006526350975036621,0.008235088416508265,1,1.0,937751.9439458847,0.5800000000000003
325,2023-04-03,1.0803335905075073,1.0915720462799072,1.078934907913208,1.0803335905075073,0,1.0734261631965638,1.0343287405371666,0.012637138366699219,0.008655684334891183,1,1.0,936671.6103553772,0.5900000000000003
326,2023-04-04,1.091226577758789,1.0971648693084717,1.0883879661560059,1.091226577758789,0,1.0735021090507508,1.0344944277405739,0.00877690315246582,0.0075700538499014714,1,1.0,935580.3837776184,0.6000000000000003
327,2023-04-05,1.0960105657577515,1.0969241857528687,1.0905362367630005,1.0960105657577515,0,1.0736460280418396,1.0347127076983451,0.006387948989868164,0.007458678313664028,1,1.0,934484.3732118607,0.6100000000000003
328,2023-04-06,1.090334177017212,1.0930156707763672,1.0885539054870605,1.090334177017212,0,1.0736086344718934,1.034941082894802,0.004461765289306641,0.00736652101789202,1,1.0,933394.0390348434,0.6200000000000003
329,2023-04-07,1.0920130014419556,1.0925379991531372,1.0881037712097168,1.0920130014419556,0,1.0736600303649901,1.0351623091101647,0.00443422794342041,0.006982403142111642,1,1.0,932302.0260334015,0.6300000000000003
330,2023-04-10,1.0913575887680054,1.0918222665786743,1.0832475423812866,1.0913575887680054,0,1.073744270801544,1.0354021230340005,0.008574724197387695,0.0070067814418247765,1,1.0,931210.6684446335,0.6400000000000003
331,2023-04-11,1.086932897567749,1.0926692485809326,1.0868029594421387,1.086932897567749,0,1.0737815403938293,1.035620194375515,0.005866289138793945,0.0071261269705636164,1,1.0,930123.7355470657,0.6500000000000004
332,2023-04-12,1.0917507410049438,1.099855899810791,1.091524362564087,1.0917507410049438,0,1.0738946604728699,1.0359501114487648,0.008331537246704102,0.007289963109152657,1,1.0,929031.9848060608,0.6600000000000004
333,2023-04-13,1.0999890565872192,1.1068999767303467,1.0981649160385132,1.0999890565872192,0,1.0738687372207643,1.0363568511605263,0.008735060691833496,0.0070561426026480535,1,1.0,927931.9957494736,0.6700000000000004
334,2023-04-14,1.1054610013961792,1.1075423955917358,1.0978032350540161,1.1054610013961792,0,1.0741677069664002,1.0367992380261422,0.009739160537719727,0.00740941081728254,1,1.0,926826.5347480774,0.6800000000000004
335,2023-04-17,1.098659634590149,1.0999042987823486,1.0910717248916626,1.098659634590149,0,1.07455917596817,1.0372094789147377,0.008832573890686035,0.007719142096383231,1,1.0,925727.8751134872,0.6900000000000004
336,2023-04-18,1.0925379991531372,1.0983458757400513,1.0922753810882568,1.0925379991531372,0,1.0749484062194825,1.0376484063267708,0.006070494651794434,0.007790897573743548,1,1.0,924635.3371143341,0.7000000000000004
337,2023-04-19,1.0975382328033447,1.098659634590149,1.0918341875076294,1.0975382328033447,0,1.0754397130012512,1.0381195428967476,0.006825447082519531,0.007585687296731132,1,1.0,923537.7988815308,0.7100000000000004
338,2023-04-20,1.095218300819397,1.0989010334014893,1.0934339761734009,1.095218300819397,0,1.075912446975708,1.038579281270504,0.005467057228088379,0.0075100234576634,1,1.0,922442.5805807114,0.7200000000000004
339,2023-04-21,1.0970927476882935,1.099251389503479,1.0939722061157227,1.0970927476882935,0,1.0763697171211242,1.0390519121289252,0.005279183387756348,0.006984455244881766,1,1.0,921345.4878330231,0.7300000000000004
340,2023-04-24,1.0992271900177002,1.103423833847046,1.0968761444091797,1.0992271900177002,0,1.0769988322257995,1.0394998887181282,0.006547689437866211,0.006825225693838937,1,1.0,920246.2606430054,0.7400000000000004
341,2023-04-25,1.1059499979019165,1.1068068742752075,1.0969241857528687,1.1059499979019165,0,1.0776569938659668,1.0399570497870445,0.009882688522338867,0.007074849946158273,1,1.0,919140.3106451035,0.7500000000000004
342,2023-04-26,1.0978394746780396,1.109410047531128,1.0969241857528687,1.0978394746780396,0,1.0781423449516296,1.0403305819630624,0.012485861778259277,0.007647999695369175,1,1.0,918042.4711704254,0.7600000000000005
343,2023-04-27,1.1047282218933105,1.1065618991851807,1.0994206666946411,1.1047282218933105,0,1.078853394985199,1.0407628324627876,0.007141232490539551,0.007841357163020543,1,1.0,916937.7429485321,0.7700000000000005
344,2023-04-28,1.1032048463821411,1.1043744087219238,1.0965633392333984,1.1032048463821411,0,1.0795859789848328,1.0411683157086373,0.007811069488525391,0.007786810398101807,1,1.0,915834.53810215,0.7800000000000005
345,2023-05-01,1.1010911464691162,1.103557825088501,1.0966956615447998,1.1010911464691162,0,1.0802389121055602,1.0415736559033393,0.006862163543701172,0.007857944284166609,1,1.0,914733.4469556808,0.7900000000000005
346,2023-05-02,1.0969241857528687,1.1005216836929321,1.0943553447723389,1.0969241857528687,0,1.080812156200409,1.0419458022713661,0.006166338920593262,0.007703287260872977,1,1.0,913636.522769928,0.8000000000000005
347,2023-05-03,1.1010911464691162,1.1058155298233032,1.100594401359558,1.1010911464691162,0,1.0815299606323243,1.0423864790797233,0.005221128463745117,0.0074522921017238074,1,1.0,912535.4316234589,0.8100000000000005
348,2023-05-04,1.1068925857543945,1.109139323234558,1.0986838340759277,1.1068925857543945,0,1.0824562048912048,1.042816296517849,0.010455489158630371,0.007503458431788853,1,1.0,911428.5390377045,0.8200000000000005
349,2023-05-05,1.102292776107788,1.1048002243041992,1.0971648693084717,1.102292776107788,0,1.0833059644699097,1.0432315960526466,0.007635354995727539,0.007417942796434675,1,1.0,910326.2462615967,0.8300000000000005
350,2023-05-08,1.10186767578125,1.1053388118743896,1.1012487411499023,1.10186767578125,0,1.0842338013648987,1.0436368104815483,0.004090070724487305,0.007276483944484166,1,1.0,909224.3785858154,0.8400000000000005
351,2023-05-09,1.0996140241622925,1.1001100540161133,1.0944032669067383,1.0996140241622925,0,1.0850036716461182,1.0440042021870612,0.005706787109375,0.007196579660688128,1,1.0,908124.7645616531,0.8500000000000005
352,2023-05-10,1.096467137336731,1.100473165512085,1.0942834615707397,1.096467137336731,0,1.0857783961296081,1.0444086942076682,0.006189703941345215,0.0072481972830636164,1,1.0,907028.2974243164,0.8600000000000005
353,2023-05-11,1.098406195640564,1.0998680591583252,1.0901321172714233,1.098406195640564,0,1.086408634185791,1.0448219022154808,0.009735941886901855,0.007566537175859723,1,1.0,905929.8912286758,0.8700000000000006
354,2023-05-12,1.0912145376205444,1.0935176610946655,1.085564136505127,1.0912145376205444,0,1.0870334601402283,1.045154078900814,0.007953524589538574,0.00766695397240775,1,1.0,904838.6766910553,0.8800000000000006
355,2023-05-15,1.0852696895599365,1.0892059803009033,1.0848575830459595,1.0852696895599365,0,1.0874864506721496,1.045494991838932,0.004348397254943848,0.0072716474533081055,1,1.0,903753.4070014954,0.8900000000000006
356,2023-05-16,1.0873701572418213,1.090358018875122,1.0856702327728271,1.0873701572418213,0,1.0878571963310242,1.0458330276608467,0.004687786102294922,0.00671464204788208,1,1.0,902666.0368442535,0.9000000000000006
357,2023-05-17,1.0865668058395386,1.0875475406646729,1.081162929534912,1.0865668058395386,0,1.088487033843994,1.0461617895960809,0.006384611129760742,0.006660597664969308,1,1.0,901579.470038414,0.9100000000000006
358,2023-05-18,1.0838346481323242,1.0849517583847046,1.0765421390533447,1.0838346481323242,0,1.0890646767616272,1.0464305713772775,0.008409619331359863,0.006703351225171771,1,1.0,900495.6353902817,0.9200000000000006
359,2023-05-19,1.0775396823883057,1.082391619682312,1.0761018991470337,1.0775396823883057,0,1.08944607257843,1.0466599079966545,0.00628972053527832,0.006662462438855853,1,1.0,899418.0957078934,0.9300000000000006
360,2023-05-22,1.0822745561599731,1.0830715894699097,1.0796570777893066,1.0822745561599731,0,1.0897242712974549,1.046943075954914,0.0034145116806030273,0.0064659033502851215,1,1.0,898335.8211517334,0.9400000000000006
361,2023-05-23,1.0811045169830322,1.0821340084075928,1.0763798952102661,1.0811045169830322,0,1.0898963403701782,1.0472676077485084,0.00575411319732666,0.006503973688398089,1,1.0,897254.7166347504,0.9500000000000006
362,2023-05-24,1.076971173286438,1.0799369812011719,1.0749683380126953,1.076971173286438,0,1.0899804496765138,1.047567131817341,0.0049686431884765625,0.006112056119101388,1,1.0,896177.7454614639,0.9600000000000006
363,2023-05-25,1.0757315158843994,1.0754191875457764,1.0709964036941528,1.0757315158843994,0,1.0903283715248109,1.047855694591999,0.004422783851623535,0.0058825867516653875,1,1.0,895102.0139455795,0.9700000000000006
364,2023-05-26,1.0724436044692993,1.0757546424865723,1.0702054500579834,1.0724436044692993,0,1.0905489754676818,1.0481729623675347,0.005549192428588867,0.005986809730529785,1,1.0,894029.5703411102,0.9800000000000006
365,2023-05-29,1.0723055601119995,1.0745755434036255,1.0706294775009155,1.0723055601119995,0,1.0906373763084412,1.0485168781876564,0.003946065902709961,0.005861043930053711,1,1.0,892957.2647809982,0.9900000000000007
366,2023-05-30,1.0707669258117676,1.0745755434036255,1.067338466644287,1.0707669258117676,0,1.0906144189834595,1.0489009788632393,0.007237076759338379,0.00593585627419608,1,1.0,891886.4978551865,1.0000000000000007
367,2023-05-31,1.073306918144226,1.0738831758499146,1.06516695022583,1.073306918144226,0,1.0905320835113526,1.0492840585112573,0.008716225624084473,0.005863019398280552,1,1.0,890813.1909370422,1.0100000000000007
368,2023-06-01,1.0695186853408813,1.0753995180130005,1.0664163827896118,1.0695186853408813,0,1.0901816725730895,1.0496471041440965,0.008983135223388672,0.005936563014984131,1,1.0,889743.6722517014,1.0200000000000007
369,2023-06-02,1.0760787725448608,1.077934741973877,1.071811318397522,1.0760787725448608,0,1.0900331330299378,1.0500418564677239,0.0061234235763549805,0.00606335060937064,1,1.0,888667.5934791565,1.0300000000000007
370,2023-06-05,1.0698620080947876,1.0722709894180298,1.0674750804901123,1.0698620080947876,0,1.0898740029335021,1.0504218274354935,0.0047959089279174805,0.0060710736683436805,1,1.0,887597.7314710617,1.0400000000000007
371,2023-06-06,1.0711798667907715,1.073306918144226,1.0667349100112915,1.0711798667907715,0,1.0896834564208984,1.0507707172632217,0.00657200813293457,0.006084459168570382,1,1.0,886526.5516042709,1.0500000000000007
372,2023-06-07,1.0698047876358032,1.074021577835083,1.0668829679489136,1.0698047876358032,0,1.0894005107879638,1.0511072099208831,0.007138609886169434,0.005993672779628209,1,1.0,885456.7468166351,1.0600000000000007
373,2023-06-08,1.0707440376281738,1.078283429145813,1.0702168941497803,1.0707440376281738,0,1.089128122329712,1.0514414042234421,0.008066534996032715,0.006120588098253522,1,1.0,884386.002779007,1.0700000000000007
374,2023-06-09,1.078271746635437,1.0787487030029297,1.0747718811035156,1.078271746635437,0,1.0888842582702636,1.0518565985560417,0.0039768218994140625,0.006160753113882882,1,1.0,883307.7310323715,1.0800000000000007
375,2023-06-12,1.0750954151153564,1.0789697170257568,1.073433518409729,1.0750954151153564,0,1.0887794947624208,1.0522773617506027,0.005536198616027832,0.0061451877866472516,1,1.0,882232.6356172562,1.0900000000000007
376,2023-06-13,1.0762988328933716,1.0822510719299316,1.076055645942688,1.0762988328933716,0,1.0884809398651123,1.0526827409863473,0.006195425987243652,0.006232815129416329,1,1.0,881156.3367843628,1.1000000000000008
377,2023-06-14,1.078934907913208,1.085835337638855,1.077574610710144,1.078934907913208,0,1.0881394267082214,1.05312843978405,0.008260726928710938,0.006506953920636859,1,1.0,880077.4018764496,1.1100000000000008
378,2023-06-15,1.084304690361023,1.0938525199890137,1.0804269313812256,1.084304690361023,0,1.0880188369750976,1.0535521122813225,0.013425588607788086,0.007069553647722516,1,1.0,878993.0971860886,1.1200000000000008
379,2023-06-16,1.0945948362350464,1.0970999002456665,1.0920130014419556,1.0945948362350464,0,1.0880704736709594,1.0540190789103507,0.0050868988037109375,0.00715104171207973,1,1.0,877898.5023498535,1.1300000000000008
380,2023-06-19,1.0942115783691406,1.0949305295944214,1.0911003351211548,1.0942115783691406,0,1.0881275534629822,1.0544544336199762,0.0038301944732666016,0.006907692977360317,1,1.0,876804.2907714844,1.1400000000000008
381,2023-06-20,1.0924304723739624,1.0945229530334473,1.0894551277160645,1.0924304723739624,0,1.0882375049591064,1.0548518070578574,0.0050678253173828125,0.0066470929554530555,1,1.0,875711.8602991104,1.1500000000000008
382,2023-06-21,1.0920368432998657,1.0961307287216187,1.0906671285629272,1.0920368432998657,0,1.0882432270050049,1.0553209748864174,0.005463600158691406,0.006395697593688965,1,1.0,874619.8234558105,1.1600000000000008
383,2023-06-22,1.0992635488510132,1.1011154651641846,1.095110297203064,1.0992635488510132,0,1.0882287168502807,1.0558252799510957,0.0060051679611206055,0.006387250764029366,1,1.0,873520.5599069595,1.1700000000000008
384,2023-06-23,1.0958904027938843,1.0958904027938843,1.0845046043395996,1.0958904027938843,0,1.0880373048782348,1.0563105753064155,0.011385798454284668,0.00685795715876988,1,1.0,872424.6695041656,1.1800000000000008
385,2023-06-26,1.0906671285629272,1.0921800136566162,1.088814616203308,1.0906671285629272,0,1.0878774547576904,1.0567527362704277,0.0033653974533081055,0.006628913538796561,1,1.0,871334.0023756027,1.1900000000000008
386,2023-06-27,1.091048002243042,1.0976104736328125,1.0903223752975464,1.091048002243042,0,1.0878476548194884,1.0571931824088097,0.007288098335266113,0.00663959128516061,1,1.0,870242.9543733597,1.2000000000000008
387,2023-06-28,1.0957223176956177,1.0962508916854858,1.0899657011032104,1.0957223176956177,0,1.087811336517334,1.0576864013075828,0.006285190582275391,0.006512352398463658,1,1.0,869147.2320556641,1.2100000000000009
388,2023-06-29,1.0915838479995728,1.094067931175232,1.0862362384796143,1.0915838479995728,0,1.0877386474609374,1.0582289630174637,0.007831692695617676,0.006787700312478202,1,1.0,868055.6482076645,1.2200000000000009
389,2023-06-30,1.0868029594421387,1.0933741331100464,1.0836466550827026,1.0868029594421387,0,1.0875328516960143,1.0587422025203705,0.00972747802734375,0.007087077413286481,1,1.0,866968.8452482224,1.2300000000000009
390,2023-07-03,1.0907504558563232,1.093135118484497,1.0871810913085938,1.0907504558563232,0,1.0873633170127868,1.059350993335247,0.00595402717590332,0.007069834641047886,1,1.0,865878.094792366,1.2400000000000009
391,2023-07-04,1.091309905052185,1.0918222665786743,1.0890754461288452,1.091309905052185,0,1.0870705151557922,1.0599956867098808,0.0027468204498291016,0.006675984178270612,1,1.0,864786.7848873138,1.2500000000000009
392,2023-07-05,1.0884946584701538,1.0906195640563965,1.086507797241211,1.0884946584701538,0,1.0868836188316344,1.0606400641798972,0.004111766815185547,0.006010711193084717,1,1.0,863698.2902288437,1.260000000000001
393,2023-07-06,1.0856584310531616,1.0901559591293335,1.083435297012329,1.0856584310531616,0,1.0865022230148316,1.0612142702937126,0.0067206621170043945,0.006127408572605678,1,1.0,862612.6317977905,1.270000000000001
394,2023-07-07,1.0890636444091797,1.096467137336731,1.0868619680404663,1.0890636444091797,0,1.0862193989753723,1.0617448106408118,0.009605169296264648,0.006539906774248395,1,1.0,861523.5681533813,1.280000000000001
395,2023-07-10,1.0969723463058472,1.0992755889892578,1.0944511890411377,1.0969723463058472,0,1.086137022972107,1.062333328127861,0.004824399948120117,0.006522519247872489,1,1.0,860426.5958070755,1.290000000000001
396,2023-07-11,1.100594401359558,1.1025601625442505,1.0978635549545288,1.100594401359558,0,1.0862104272842408,1.0629202657938004,0.00469660758972168,0.006467734064374652,1,1.0,859326.001405716,1.300000000000001
397,2023-07-12,1.101406455039978,1.1125946044921875,1.1012852191925049,1.101406455039978,0,1.086216733455658,1.063435135781765,0.011309385299682617,0.006846606731414795,1,1.0,858224.594950676,1.310000000000001
398,2023-07-13,1.1144545078277588,1.1196202039718628,1.113065242767334,1.1144545078277588,0,1.0863679718971253,1.06405190885067,0.006554961204528809,0.006501546927860805,1,1.0,857110.1404428482,1.320000000000001
399,2023-07-14,1.1223469972610474,1.12447988986969,1.1206114292144775,1.1223469972610474,0,1.0867690563201904,1.0647691211104393,0.0038684606552124023,0.006537480013711112,1,1.0,855987.7934455872,1.330000000000001
400,2023-07-17,1.1227755546569824,1.125112533569336,1.1205486059188843,1.1227755546569824,0,1.087187213897705,1.0655154925584793,0.00456392765045166,0.006342896393367222,1,1.0,854865.0178909302,1.340000000000001
401,2023-07-18,1.1237596273422241,1.1275737285614014,1.1220070123672485,1.1237596273422241,0,1.0876701259613037,1.0662792620062829,0.005566716194152832,0.006291576794215611,1,1.0,853741.258263588,1.350000000000001
402,2023-07-19,1.1228890419006348,1.123974323272705,1.1176306009292603,1.1228890419006348,0,1.0881985640525818,1.067043623328209,0.006343722343444824,0.006185293197631836,1,1.0,852618.3692216873,1.360000000000001
403,2023-07-20,1.120523452758789,1.12296462059021,1.1133129596710205,1.120523452758789,0,1.0886409091949463,1.067792248427868,0.009651660919189453,0.006179877689906529,1,1.0,851497.8457689285,1.370000000000001
404,2023-07-21,1.113709807395935,1.1147029399871826,1.110962986946106,1.113709807395935,0,1.089090814590454,1.068485127389431,0.00373995304107666,0.0060217295374189106,1,1.0,850384.1359615326,1.380000000000001
405,2023-07-24,1.112532615661621,1.114504098892212,1.1068804264068604,1.112532615661621,0,1.089636073112488,1.069178103208542,0.0076236724853515625,0.0063700761113848,1,1.0,849271.603345871,1.390000000000001
406,2023-07-25,1.1063170433044434,1.1088933944702148,1.1022076606750488,1.1063170433044434,0,1.0900150108337403,1.06978649020195,0.006685733795166016,0.00655393089566912,1,1.0,848165.2863025665,1.400000000000001
407,2023-07-26,1.1050456762313843,1.1086474657058716,1.1038380861282349,1.1050456762313843,0,1.0903845882415772,1.0703797793388368,0.004809379577636719,0.006417410714285714,1,1.0,847060.2406263351,1.410000000000001
408,2023-07-27,1.1078368425369263,1.115200161933899,1.0984907150268555,1.1078368425369263,0,1.090864632129669,1.0710357221961022,0.016709446907043457,0.006924859115055629,1,1.0,845952.4037837982,1.420000000000001
409,2023-07-28,1.0978755950927734,1.1046794652938843,1.0947027206420898,1.0978755950927734,0,1.0912713503837586,1.0716356503963471,0.009976744651794434,0.0072928837367466515,1,1.0,844854.5281887054,1.430000000000001
410,2023-07-31,1.1024264097213745,1.1045451164245605,1.100618600845337,1.1024264097213745,0,1.0916743874549866,1.072217739522457,0.003926515579223633,0.0072378771645682195,1,1.0,843752.1017789841,1.440000000000001
411,2023-08-01,1.0997591018676758,1.1002310514450073,1.095446228981018,1.0997591018676758,0,1.0920474791526795,1.0727732834219932,0.004784822463989258,0.006771836962018695,1,1.0,842652.3426771164,1.450000000000001
412,2023-08-02,1.1007881164550781,1.1007033586502075,1.0919772386550903,1.1007881164550781,0,1.0925238180160521,1.0732953584194183,0.008726119995117188,0.006926919732775007,1,1.0,841551.5545606613,1.460000000000001
413,2023-08-03,1.0944151878356934,1.0953983068466187,1.0913575887680054,1.0944151878356934,0,1.0928974914550782,1.0737214654684066,0.004040718078613281,0.0069392238344464984,1,1.0,840457.1393728256,1.470000000000001
414,2023-08-04,1.095158338546753,1.1040940284729004,1.0936251878738403,1.095158338546753,0,1.093351786136627,1.0742133551836013,0.010468840599060059,0.0073610033307756695,1,1.0,839361.9810342789,1.480000000000001
415,2023-08-07,1.1002674102783203,1.1012003421783447,1.096611499786377,1.1002674102783203,0,1.0939110231399536,1.0747371909022332,0.0045888423919677734,0.007291155202048165,1,1.0,838261.7136240005,1.490000000000001
416,2023-08-08,1.100315809249878,1.1009820699691772,1.0930992364883423,1.100315809249878,0,1.0945020008087158,1.0752956160902978,0.007882833480834961,0.007401091711861747,1,1.0,837161.3978147507,1.500000000000001
417,2023-08-09,1.0958904027938843,1.0994327068328857,1.0955902338027954,1.0958904027938843,0,1.0949536705017089,1.0758361133933068,0.003842473030090332,0.006986149719783238,1,1.0,836065.5074119568,1.5100000000000011
418,2023-08-10,1.0977671146392822,1.1058399677276611,1.096803903579712,1.0977671146392822,0,1.095518639087677,1.0764177444577216,0.009036064147949219,0.007364443370274135,1,1.0,834967.7402973175,1.5200000000000011
419,2023-08-11,1.0981649160385132,1.1004369258880615,1.0951822996139526,1.0981649160385132,0,1.09596036195755,1.077033753991127,0.005254626274108887,0.007195225783756801,1,1.0,833869.575381279,1.5300000000000011
420,2023-08-14,1.094439148902893,1.0960345268249512,1.087748646736145,1.094439148902893,0,1.0964519047737122,1.0775415444374083,0.008285880088806152,0.007309521947588239,1,1.0,832775.1362323761,1.5400000000000011
421,2023-08-15,1.0909883975982666,1.0949664115905762,1.0900845527648926,1.0909883975982666,0,1.096848075389862,1.0779871690273284,0.004881858825683594,0.0073146990367344445,1,1.0,831684.1478347778,1.5500000000000012
422,2023-08-16,1.0904173851013184,1.0934697389602661,1.0897756814956665,1.0904173851013184,0,1.0972603273391723,1.0783988320827484,0.0036940574645996094,0.00638502836227417,1,1.0,830593.7304496765,1.5600000000000012
423,2023-08-17,1.0874884128570557,1.0917268991470337,1.0862362384796143,1.0874884128570557,0,1.09759521484375,1.078826504945755,0.005490660667419434,0.00606459379196167,1,1.0,829506.2420368195,1.5700000000000012
424,2023-08-18,1.0874648094177246,1.089561939239502,1.0846457481384277,1.0874648094177246,0,1.0977790760993957,1.0791677165031432,0.004916191101074219,0.006135284900665283,1,1.0,828418.7772274017,1.5800000000000012
425,2023-08-21,1.087559461593628,1.0913575887680054,1.0870628356933594,1.087559461593628,0,1.0980283570289613,1.0794412380456924,0.004294753074645996,0.006100279944283622,1,1.0,827331.2177658081,1.5900000000000012
426,2023-08-22,1.0898351669311523,1.093199610710144,1.0834001302719116,1.0898351669311523,0,1.0982990837097169,1.0797307747602463,0.009799480438232422,0.006176948547363281,1,1.0,826241.382598877,1.6000000000000012
427,2023-08-23,1.0846692323684692,1.0870510339736938,1.0802985429763794,1.0846692323684692,0,1.098413770198822,1.0799751889705658,0.006752490997314453,0.006370646612984794,1,1.0,825156.7133665085,1.6100000000000012
428,2023-08-24,1.086578607559204,1.0876895189285278,1.081548810005188,1.086578607559204,0,1.0984592485427855,1.0802105766534806,0.006140708923339844,0.00606149435043335,1,1.0,824070.1347589493,1.6200000000000012
429,2023-08-25,1.07991361618042,1.0839755535125732,1.076669692993164,1.07991361618042,0,1.098165624141693,1.0804292804002762,0.00730586051940918,0.0062555670738220215,1,1.0,822990.2211427689,1.6300000000000012
430,2023-08-28,1.0797386169433594,1.0821340084075928,1.0799369812011719,1.0797386169433594,0,1.0978761649131774,1.0806625241041183,0.0021970272064208984,0.005849438054221017,1,1.0,821910.4825258255,1.6400000000000012
431,2023-08-29,1.0825556516647339,1.0856702327728271,1.0783531665802002,1.0825556516647339,0,1.097678668498993,1.0809524565935136,0.007317066192626953,0.00609762328011649,1,1.0,820827.9268741608,1.6500000000000012
432,2023-08-30,1.0869210958480835,1.094546914100647,1.085611343383789,1.0869210958480835,0,1.0975763535499572,1.0812315189838408,0.00893557071685791,0.0060904451778956824,1,1.0,819741.0057783127,1.6600000000000013
433,2023-08-31,1.0932546854019165,1.0939722061157227,1.0837171077728271,1.0932546854019165,0,1.0974561762809754,1.08148967564106,0.010255098342895508,0.006447621754237584,1,1.0,818647.7510929108,1.6700000000000013
434,2023-09-01,1.0844104290008545,1.0880801677703857,1.0785857439041138,1.0844104290008545,0,1.0972265768051148,1.0817076766490936,0.009494423866271973,0.006533946309770856,1,1.0,817563.3406639099,1.6800000000000013
435,2023-09-04,1.07758629322052,1.080905795097351,1.0774004459381104,1.07758629322052,0,1.0969649600982665,1.0819118440151214,0.0035053491592407227,0.006435624190739223,1,1.0,816485.7543706894,1.6900000000000013
436,2023-09-05,1.0794472694396973,1.07991361618042,1.0707554817199707,1.0794472694396973,0,1.0967329454421997,1.0821363097429275,0.009158134460449219,0.006825915404728481,1,1.0,815406.3071012497,1.7000000000000013
437,2023-09-06,1.0726161003112793,1.0748181343078613,1.0705147981643677,1.0726161003112793,0,1.096270821094513,1.0823371404409408,0.004303336143493652,0.0067411065101623535,1,1.0,814333.6910009384,1.7100000000000013
438,2023-09-07,1.0724204778671265,1.0734220743179321,1.068764328956604,1.0724204778671265,0,1.095887553691864,1.082486565709114,0.004657745361328125,0.006722646100180489,1,1.0,813261.2705230713,1.7200000000000013
439,2023-09-08,1.0697818994522095,1.0742061138153076,1.0695072412490845,1.0697818994522095,0,1.0955471324920654,1.0825712645053864,0.0046988725662231445,0.006751511778150286,1,1.0,812191.4886236191,1.7300000000000013
440,2023-09-11,1.071811318397522,1.0756852626800537,1.0711455345153809,1.071811318397522,0,1.0951683497428895,1.08265822827816,0.0045397281646728516,0.006375815187181745,1,1.0,811119.6773052216,1.7400000000000013
441,2023-09-12,1.0750375986099243,1.0762641429901123,1.070617914199829,1.0750375986099243,0,1.0948429036140441,1.0827849543094634,0.005646228790283203,0.006296796458108085,1,1.0,810044.6397066116,1.7500000000000013
442,2023-09-13,1.075326681137085,1.0765421390533447,1.0717424154281616,1.075326681137085,0,1.094579544067383,1.0829270821809769,0.0047997236251831055,0.006201011793954032,1,1.0,808969.3130254745,1.7600000000000013
443,2023-09-14,1.0734220743179321,1.0755001306533813,1.065507411956787,1.0734220743179321,0,1.0943348169326783,1.0830375635623932,0.009992718696594238,0.006392930235181536,1,1.0,807895.8909511566,1.7700000000000014
444,2023-09-15,1.0637166500091553,1.068764328956604,1.0634677410125732,1.0637166500091553,0,1.0938278770446777,1.0830763161182404,0.005296587944030762,0.006614327430725098,1,1.0,806832.1743011475,1.7800000000000014
445,2023-09-18,1.0668259859085083,1.0698162317276,1.0656323432922363,1.0668259859085083,0,1.093224949836731,1.0831493371725083,0.0041838884353637695,0.006390529019492013,1,1.0,805765.348315239,1.7900000000000014
446,2023-09-19,1.0692671537399292,1.071926236152649,1.0676347017288208,1.0692671537399292,0,1.0925984048843385,1.0832248032093048,0.004291534423828125,0.006058812141418457,1,1.0,804696.081161499,1.8000000000000014
447,2023-09-20,1.0682048797607422,1.0726966857910156,1.0675777196884155,1.0682048797607422,0,1.0919343733787537,1.0832525008916856,0.005118966102600098,0.005691945552825928,1,1.0,803627.8762817383,1.8100000000000014
448,2023-09-21,1.065303087234497,1.0673611164093018,1.0619093179702759,1.065303087234497,0,1.0909513449668884,1.083240842819214,0.005451798439025879,0.005403186593736921,1,1.0,802562.5731945038,1.8200000000000014
449,2023-09-22,1.0661548376083374,1.0671560764312744,1.0615260601043701,1.0661548376083374,0,1.0898275017738341,1.0832513362169265,0.005630016326904297,0.00555494853428432,1,1.0,801496.4183568954,1.8300000000000014
450,2023-09-25,1.0648492574691772,1.0655415058135986,1.0577309131622314,1.0648492574691772,0,1.088668975830078,1.0832830649614333,0.0078105926513671875,0.005458695547921317,1,1.0,800431.5690994263,1.8400000000000014
451,2023-09-26,1.0591648817062378,1.060895323753357,1.0568143129348755,1.0591648817062378,0,1.0873770809173584,1.0832715970277786,0.004081010818481445,0.005442815167563302,1,1.0,799372.40421772,1.8500000000000014
452,2023-09-27,1.0569483041763306,1.057373046875,1.0509058237075806,1.0569483041763306,0,1.0860582661628724,1.0832428419589997,0.006467223167419434,0.00557206358228411,1,1.0,798315.4559135437,1.8600000000000014
453,2023-09-28,1.0505305528640747,1.0578652620315552,1.049185872077942,1.0505305528640747,0,1.084658408164978,1.0831904548406601,0.008679389953613281,0.005856386252811977,1,1.0,797264.9253606796,1.8700000000000014
454,2023-09-29,1.0562450885772705,1.0617965459823608,1.0558546781539917,1.0562450885772705,0,1.0835091137886048,1.0831700152158736,0.005941867828369141,0.00595653908593314,1,1.0,796208.6802721024,1.8800000000000014
455,2023-10-02,1.0565240383148193,1.0590976476669312,1.0492738485336304,1.0565240383148193,0,1.0823889422416686,1.0831187331676484,0.009823799133300781,0.006254936967577253,0,1.0,795152.1562337875,1.8900000000000015
456,2023-10-03,1.0480751991271973,1.049428105354309,1.0449867248535156,1.0480751991271973,0,1.0812241053581237,1.083038998246193,0.004441380500793457,0.00622934103012085,0,0.0,795152.1562337875,1.8900000000000015
457,2023-10-04,1.0472300052642822,1.0532413721084595,1.045369029045105,1.0472300052642822,0,1.0800677919387818,1.0829565650224686,0.007872343063354492,0.006077885627746582,0,0.0,795152.1562337875,1.8900000000000015
458,2023-10-05,1.0507071018218994,1.0536853075027466,1.0500892400741577,1.0507071018218994,0,1.078925197124481,1.0828954750299453,0.003596067428588867,0.0059564198766435894,0,0.0,795152.1562337875,1.8900000000000015
459,2023-10-06,1.0546631813049316,1.0598160028457642,1.0483938455581665,1.0546631813049316,0,1.0780609488487243,1.082838414311409,0.011422157287597656,0.006473439080374581,0,0.0,795152.1562337875,1.8900000000000015
460,2023-10-09,1.056747317314148,1.0576413869857788,1.0521442890167236,1.056747317314148,0,1.0771473670005798,1.0827672839164735,0.005497097969055176,0.006559550762176514,0,0.0,795152.1562337875,1.8900000000000015
461,2023-10-10,1.0578875541687012,1.061954379081726,1.0555983781814575,1.0578875541687012,0,1.0763099360466004,1.0827178645133972,0.006356000900268555,0.006647910390581403,0,0.0,795152.1562337875,1.8900000000000015
462,2023-10-11,1.0604791641235352,1.063354730606079,1.0592771768569946,1.0604791641235352,0,1.0755037569999695,1.0827468329668044,0.004077553749084473,0.006549750055585589,0,0.0,795152.1562337875,1.8900000000000015
463,2023-10-12,1.0624282360076904,1.0639089345932007,1.0545964241027832,1.0624282360076904,0,1.0748640179634095,1.0827557915449142,0.00931251049041748,0.006812785352979388,0,0.0,795152.1562337875,1.8900000000000015
464,2023-10-13,1.0536741018295288,1.0558546781539917,1.0496152639389038,1.0536741018295288,0,1.074034333229065,1.0827630531787873,0.006239414215087891,0.006700558321816581,0,0.0,795152.1562337875,1.8900000000000015
465,2023-10-16,1.0521553754806519,1.055464744567871,1.0516352653503418,1.0521553754806519,0,1.0730720925331116,1.0826956683397293,0.003829479217529297,0.006682591778891427,0,0.0,795152.1562337875,1.8900000000000015
466,2023-10-17,1.0554312467575073,1.0595004558563232,1.0533411502838135,1.0554312467575073,0,1.0721744012832641,1.0826062327623367,0.006159305572509766,0.006660597664969308,0,0.0,795152.1562337875,1.8900000000000015
467,2023-10-18,1.057305932044983,1.0595465898513794,1.0527091026306152,1.057305932044983,0,1.071402711868286,1.0825232893228531,0.00683748722076416,0.006529033184051514,0,0.0,795152.1562337875,1.8900000000000015
468,2023-10-19,1.053851842880249,1.0585371255874634,1.0528864860534668,1.053851842880249,0,1.0705244064331054,1.082409548163414,0.005650639533996582,0.006508231163024902,0,0.0,795152.1562337875,1.8900000000000015
469,2023-10-20,1.0586491823196411,1.0601080656051636,1.056579828262329,1.0586491823196411,0,1.0697340917587281,1.0822726744413376,0.0035282373428344727,0.006058548177991595,0,0.0,795152.1562337875,1.8900000000000015
470,2023-10-23,1.0589966773986816,1.064736008644104,1.057183027267456,1.0589966773986816,0,1.0690252423286437,1.0821553480625152,0.007552981376647949,0.006280805383409772,0,0.0,795152.1562337875,1.8900000000000015
471,2023-10-24,1.0669853687286377,1.0690499544143677,1.0584250688552856,1.0669853687286377,0,1.0685451817512512,1.0820752102136613,0.010624885559082031,0.006477415561676025,0,0.0,795152.1562337875,1.8900000000000015
472,2023-10-25,1.059535264968872,1.0606703758239746,1.0566803216934204,1.059535264968872,0,1.0679275393486023,1.0819762325286866,0.003990054130554199,0.006505557468959263,0,0.0,795152.1562337875,1.8900000000000015
473,2023-10-26,1.056725025177002,1.0569707155227661,1.0526316165924072,1.056725025177002,0,1.0673122715950012,1.0818609309196472,0.004339098930358887,0.005999624729156494,0,0.0,795152.1562337875,1.8900000000000015
474,2023-10-27,1.0564459562301636,1.0597710609436035,1.053629755973816,1.0564459562301636,0,1.06669189453125,1.0817262190580368,0.006141304969787598,0.006045639514923096,0,0.0,795152.1562337875,1.8900000000000015
475,2023-10-30,1.0562450885772705,1.0625998973846436,1.054841160774231,1.0562450885772705,0,1.066065607070923,1.081574905514717,0.007758736610412598,0.006145834922790527,0,0.0,795152.1562337875,1.8900000000000015
476,2023-10-31,1.061503529548645,1.0669056177139282,1.0567585229873657,1.061503529548645,0,1.0654989743232728,1.0814452767372131,0.0101470947265625,0.006579373564038958,0,0.0,795152.1562337875,1.8900000000000015
477,2023-11-01,1.0579099655151367,1.0580778121948242,1.0522881746292114,1.0579099655151367,0,1.064963788986206,1.0812907534837723,0.005789637565612793,0.006327739783695766,0,0.0,795152.1562337875,1.8900000000000015
478,2023-11-02,1.05870521068573,1.067008137702942,1.0584250688552856,1.05870521068573,0,1.0644063210487367,1.0811232602596283,0.00858306884765625,0.006495143686022077,0,0.0,795152.1562337875,1.8900000000000015
479,2023-11-03,1.0619093179702759,1.0736998319625854,1.0615485906600952,1.0619093179702759,0,1.0640462350845337,1.0809855908155441,0.012151241302490234,0.007089555263519287,0,0.0,795152.1562337875,1.8900000000000015
480,2023-11-06,1.0732147693634033,1.075700283050537,1.0723400115966797,1.0732147693634033,0,1.0639157581329346,1.0809159368276595,0.003360271453857422,0.00688962425504412,0,0.0,795152.1562337875,1.8900000000000015
481,2023-11-07,1.0721560716629028,1.0721560716629028,1.0664732456207275,1.0721560716629028,0,1.063707766532898,1.0808513700962066,0.005682826042175293,0.006807148456573486,0,0.0,795152.1562337875,1.8900000000000015
482,2023-11-08,1.0696102380752563,1.071604609489441,1.0660640001296997,1.0696102380752563,0,1.0633615493774413,1.0807689476013183,0.005540609359741211,0.006799289158412388,0,0.0,795152.1562337875,1.8900000000000015
483,2023-11-09,1.0710422992706299,1.0728002786636353,1.0681477785110474,1.0710422992706299,0,1.0629173016548157,1.080617733001709,0.004652500152587891,0.0068795936448233464,0,0.0,795152.1562337875,1.8900000000000015
484,2023-11-10,1.0667576789855957,1.0692557096481323,1.0657685995101929,1.0667576789855957,0,1.0625642466545104,1.0804989588260652,0.003487110137939453,0.006589174270629883,0,0.0,795152.1562337875,1.8900000000000015
485,2023-11-13,1.069015622138977,1.0705492496490479,1.0665528774261475,1.069015622138977,0,1.0623928332328796,1.0804486060142517,0.003996372222900391,0.006115709032331195,0,0.0,795152.1562337875,1.8900000000000015
486,2023-11-14,1.0701825618743896,1.08672034740448,1.0693585872650146,1.0701825618743896,0,1.0622075390815735,1.080434136390686,0.017361760139465332,0.007070830890110561,0,0.0,795152.1562337875,1.8900000000000015
487,2023-11-15,1.0878314971923828,1.0887316465377808,1.0832945108413696,1.0878314971923828,0,1.0625118470191957,1.0805084294080733,0.005437135696411133,0.0071492620876857215,0,0.0,795152.1562337875,1.8900000000000015
488,2023-11-16,1.0854581594467163,1.0893957614898682,1.0830950736999512,1.0854581594467163,0,1.0627726006507874,1.0805778121948242,0.006300687789916992,0.007160646574837821,0,0.0,795152.1562337875,1.8900000000000015
489,2023-11-17,1.0853756666183472,1.089229702949524,1.0825204849243164,1.0853756666183472,0,1.06308447599411,1.0806335443258286,0.0067092180252075195,0.007085680961608887,0,0.0,795152.1562337875,1.8900000000000015
490,2023-11-20,1.090702772140503,1.0945110321044922,1.0897995233535767,1.090702772140503,0,1.0634623050689698,1.0807482010126115,0.004711508750915527,0.006697424820491246,0,0.0,795152.1562337875,1.8900000000000015
491,2023-11-21,1.0945948362350464,1.0967316627502441,1.0922993421554565,1.0945948362350464,0,1.0638534498214722,1.0808559656143188,0.004432320594787598,0.0066004736082894465,0,0.0,795152.1562337875,1.8900000000000015
492,2023-11-22,1.0918222665786743,1.0922515392303467,1.0854581594467163,1.0918222665786743,0,1.064183361530304,1.0809472173452377,0.006793379783630371,0.006472638675144741,0,0.0,795152.1562337875,1.8900000000000015
493,2023-11-23,1.0890873670578003,1.0927051305770874,1.0888028144836426,1.0890873670578003,0,1.0644966673851013,1.0810467755794526,0.0039023160934448242,0.005883429731641497,0,0.0,795152.1562337875,1.8900000000000015
494,2023-11-24,1.0906314849853516,1.0944151878356934,1.089561939239502,1.0906314849853516,0,1.0650349640846253,1.081167054772377,0.004853248596191406,0.005990070956093925,0,0.0,795152.1562337875,1.8900000000000015
