Datetime,Open,High,Low,Close,Volume,MA_Fast,MA_Slow,TR,ATR,Signal,Position,Capital,Shares_Held,Market_Return,Cumulative_Market_Returns,Strategy_Value,Cumulative_Strategy_Returns
2023-12-01 09:15:00,84900.0,85000.0,84600.0,84700.0,46700,,,400.0,,0,,10000000,0,,,10000000.0,1.0
2023-12-01 09:30:00,84700.0,84700.0,84600.0,84700.0,14400,,,100.0,,0,0.0,10000000,0,0.0,1.0,10000000.0,1.0
2023-12-01 09:45:00,84700.0,84700.0,84500.0,84500.0,36200,,,200.0,,0,0.0,10000000,0,-0.0023612750885477762,0.9976387249114522,10000000.0,1.0
2023-12-01 10:00:00,84600.0,84600.0,84500.0,84500.0,21100,,,100.0,,0,0.0,10000000,0,0.0,0.9976387249114522,10000000.0,1.0
2023-12-01 10:15:00,84600.0,84600.0,84400.0,84500.0,46400,,,200.0,,0,0.0,10000000,0,0.0,0.9976387249114522,10000000.0,1.0
2023-12-01 10:30:00,84500.0,84600.0,84500.0,84500.0,14600,,,100.0,,0,0.0,10000000,0,0.0,0.9976387249114522,10000000.0,1.0
2023-12-01 10:45:00,84500.0,84500.0,84300.0,84300.0,69200,,,200.0,,0,0.0,10000000,0,-0.002366863905325478,0.9952774498229043,10000000.0,1.0
2023-12-01 11:00:00,84400.0,84400.0,84300.0,84300.0,24100,,,100.0,,0,0.0,10000000,0,0.0,0.9952774498229043,10000000.0,1.0
2023-12-01 11:15:00,84300.0,84400.0,84200.0,84300.0,49400,,,200.0,,0,0.0,10000000,0,0.0,0.9952774498229043,10000000.0,1.0
2023-12-01 11:30:00,84300.0,84300.0,84300.0,84300.0,300,,,0.0,,0,0.0,10000000,0,0.0,0.9952774498229043,10000000.0,1.0
2023-12-01 13:00:00,84300.0,84300.0,84100.0,84200.0,70000,,,200.0,,0,0.0,10000000,0,-0.0011862396204033177,0.9940968122786304,10000000.0,1.0
2023-12-01 13:15:00,84200.0,84400.0,84200.0,84300.0,37000,,,200.0,,0,0.0,10000000,0,0.0011876484560569,0.9952774498229042,10000000.0,1.0
2023-12-01 13:30:00,84300.0,84300.0,84200.0,84200.0,12500,,,100.0,,0,0.0,10000000,0,-0.0011862396204033177,0.9940968122786303,10000000.0,1.0
2023-12-01 13:45:00,84300.0,84400.0,84200.0,84300.0,90200,,,200.0,164.28571428571428,0,0.0,10000000,0,0.0011876484560569,0.9952774498229041,10000000.0,1.0
2023-12-01 14:00:00,84300.0,84700.0,84300.0,84600.0,82000,,,400.0,164.28571428571428,0,0.0,10000000,0,0.003558718861210064,0.9988193624557259,10000000.0,1.0
2023-12-01 14:15:00,84600.0,85000.0,84400.0,84900.0,112900,,,600.0,200.0,0,0.0,10000000,0,0.0035460992907800915,1.0023612750885476,10000000.0,1.0
2023-12-01 14:45:00,85000.0,85000.0,85000.0,85000.0,56700,,,0.0,185.71428571428572,0,0.0,10000000,0,0.0011778563015312216,1.0035419126328216,10000000.0,1.0
2023-12-04 09:15:00,85400.0,85400.0,84800.0,85100.0,19400,,,600.0,221.42857142857142,0,0.0,10000000,0,0.0011764705882353343,1.0047225501770956,10000000.0,1.0
2023-12-04 09:30:00,85000.0,85200.0,85000.0,85000.0,27900,,,200.0,221.42857142857142,0,0.0,10000000,0,-0.001175088131609825,1.0035419126328218,10000000.0,1.0
2023-12-04 09:45:00,85000.0,85200.0,85000.0,85000.0,44500,,,200.0,228.57142857142858,0,0.0,10000000,0,0.0,1.0035419126328218,10000000.0,1.0
2023-12-04 10:00:00,85000.0,85100.0,84900.0,84900.0,59500,,,200.0,228.57142857142858,0,0.0,10000000,0,-0.0011764705882353343,1.0023612750885478,10000000.0,1.0
2023-12-04 10:15:00,85000.0,85300.0,84900.0,85200.0,11700,,,400.0,250.0,0,0.0,10000000,0,0.0035335689045936647,1.0059031877213696,10000000.0,1.0
2023-12-04 10:30:00,85200.0,85700.0,85200.0,85700.0,271300,,,500.0,271.42857142857144,0,0.0,10000000,0,0.005868544600938996,1.011806375442739,10000000.0,1.0
2023-12-04 10:45:00,85700.0,86200.0,85700.0,85800.0,114900,,,500.0,307.14285714285717,0,0.0,10000000,0,0.001166861143523823,1.0129870129870129,10000000.0,1.0
2023-12-04 11:00:00,85800.0,86200.0,85800.0,86100.0,73100,,,400.0,321.42857142857144,0,0.0,10000000,0,0.0034965034965035446,1.0165289256198347,10000000.0,1.0
2023-12-04 11:15:00,86100.0,86100.0,85800.0,85800.0,45800,,,300.0,328.57142857142856,0,0.0,10000000,0,-0.0034843205574912606,1.0129870129870129,10000000.0,1.0
2023-12-04 13:00:00,85800.0,86000.0,85700.0,85800.0,32000,,,300.0,342.85714285714283,0,0.0,10000000,0,0.0,1.0129870129870129,10000000.0,1.0
2023-12-04 13:15:00,85800.0,85900.0,85800.0,85800.0,24500,,,100.0,335.7142857142857,0,0.0,10000000,0,0.0,1.0129870129870129,10000000.0,1.0
2023-12-04 13:30:00,85800.0,86000.0,85500.0,85900.0,77500,,,500.0,342.85714285714283,0,0.0,10000000,0,0.0011655011655011815,1.0141676505312869,10000000.0,1.0
2023-12-04 13:45:00,85500.0,85900.0,85400.0,85900.0,50300,,,500.0,335.7142857142857,0,0.0,10000000,0,0.0,1.0141676505312869,10000000.0,1.0
2023-12-04 14:00:00,85900.0,86200.0,85900.0,86000.0,152400,,,300.0,357.14285714285717,0,0.0,10000000,0,0.0011641443538998875,1.0153482880755609,10000000.0,1.0
2023-12-04 14:15:00,86200.0,86200.0,85500.0,85800.0,95000,,,700.0,364.2857142857143,0,0.0,10000000,0,-0.0023255813953488857,1.012987012987013,10000000.0,1.0
2023-12-04 14:45:00,86000.0,86000.0,86000.0,86000.0,0,,,0.0,350.0,0,0.0,10000000,0,0.002331002331002363,1.0153482880755609,10000000.0,1.0
2023-12-05 09:15:00,86000.0,86100.0,86000.0,86000.0,75301,,,100.0,342.85714285714283,0,0.0,10000000,0,0.0,1.0153482880755609,10000000.0,1.0
2023-12-05 09:30:00,86000.0,86000.0,85700.0,85700.0,63900,,,300.0,350.0,0,0.0,10000000,0,-0.0034883720930232176,1.011806375442739,10000000.0,1.0
2023-12-05 09:45:00,85800.0,85800.0,85700.0,85700.0,13700,,,100.0,328.57142857142856,0,0.0,10000000,0,0.0,1.011806375442739,10000000.0,1.0
2023-12-05 10:00:00,85700.0,85800.0,85600.0,85600.0,52200,,,200.0,307.14285714285717,0,0.0,10000000,0,-0.001166861143523934,1.010625737898465,10000000.0,1.0
2023-12-05 10:15:00,85600.0,85700.0,85500.0,85600.0,36900,,,200.0,285.7142857142857,0,0.0,10000000,0,0.0,1.010625737898465,10000000.0,1.0
2023-12-05 10:30:00,85500.0,85600.0,85500.0,85500.0,57600,,,100.0,264.2857142857143,0,0.0,10000000,0,-0.001168224299065379,1.0094451003541913,10000000.0,1.0
2023-12-05 10:45:00,85500.0,85600.0,85400.0,85500.0,44500,,,200.0,257.14285714285717,0,0.0,10000000,0,0.0,1.0094451003541913,10000000.0,1.0
2023-12-05 11:00:00,85400.0,85500.0,85300.0,85300.0,48200,,,200.0,250.0,0,0.0,10000000,0,-0.002339181286549752,1.0070838252656436,10000000.0,1.0
2023-12-05 11:15:00,85300.0,85400.0,85200.0,85200.0,38400,,,200.0,257.14285714285717,0,0.0,10000000,0,-0.0011723329425556983,1.0059031877213696,10000000.0,1.0
2023-12-05 13:00:00,85300.0,85400.0,85200.0,85300.0,28700,,,200.0,235.71428571428572,0,0.0,10000000,0,0.0011737089201877549,1.0070838252656433,10000000.0,1.0
2023-12-05 13:15:00,85300.0,85400.0,85200.0,85300.0,1391860,,,200.0,214.28571428571428,0,0.0,10000000,0,0.0,1.0070838252656433,10000000.0,1.0
2023-12-05 13:30:00,85300.0,85400.0,85200.0,85300.0,34500,,,200.0,207.14285714285714,0,0.0,10000000,0,0.0,1.0070838252656433,10000000.0,1.0
2023-12-05 13:45:00,85300.0,85400.0,85200.0,85300.0,63600,,,200.0,171.42857142857142,0,0.0,10000000,0,0.0,1.0070838252656433,10000000.0,1.0
2023-12-05 14:00:00,85400.0,85400.0,85100.0,85200.0,87100,,,300.0,192.85714285714286,0,0.0,10000000,0,-0.0011723329425556983,1.0059031877213693,10000000.0,1.0
2023-12-05 14:15:00,85200.0,85400.0,84800.0,85200.0,246300,,,600.0,228.57142857142858,0,0.0,10000000,0,0.0,1.0059031877213693,10000000.0,1.0
2023-12-05 14:45:00,85400.0,85400.0,85400.0,85400.0,0,,,0.0,207.14285714285714,0,0.0,10000000,0,0.0023474178403755097,1.008264462809917,10000000.0,1.0
2023-12-06 09:15:00,85300.0,85400.0,85100.0,85200.0,21400,85164.0,,300.0,221.42857142857142,0,0.0,10000000,0,-0.0023419203747072626,1.0059031877213693,10000000.0,1.0
2023-12-06 09:30:00,85200.0,85200.0,85000.0,85100.0,51300,85172.0,,200.0,221.42857142857142,0,0.0,10000000,0,-0.0011737089201877549,1.0047225501770956,10000000.0,1.0
2023-12-06 09:45:00,85100.0,85200.0,85000.0,85100.0,23900,85180.0,,200.0,221.42857142857142,0,0.0,10000000,0,0.0,1.0047225501770956,10000000.0,1.0
2023-12-06 10:00:00,85100.0,85300.0,85000.0,85200.0,19600,85194.0,,300.0,235.71428571428572,0,0.0,10000000,0,0.001175088131609936,1.0059031877213696,10000000.0,1.0
2023-12-06 10:15:00,85200.0,85200.0,85100.0,85200.0,24400,85208.0,,100.0,228.57142857142858,0,0.0,10000000,0,0.0,1.0059031877213696,10000000.0,1.0
2023-12-06 10:30:00,85200.0,85400.0,85200.0,85400.0,65500,85226.0,,200.0,228.57142857142858,0,0.0,10000000,0,0.0023474178403755097,1.0082644628099173,10000000.0,1.0
2023-12-06 10:45:00,85400.0,85800.0,85400.0,85600.0,63700,85248.0,,400.0,242.85714285714286,0,0.0,10000000,0,0.0023419203747072626,1.010625737898465,10000000.0,1.0
2023-12-06 11:00:00,85600.0,85700.0,85400.0,85700.0,23600,85276.0,,300.0,250.0,0,0.0,10000000,0,0.001168224299065379,1.0118063754427389,10000000.0,1.0
2023-12-06 11:15:00,85600.0,85700.0,85300.0,85400.0,20000,85298.0,,400.0,264.2857142857143,0,0.0,10000000,0,-0.003500583430571802,1.008264462809917,10000000.0,1.0
2023-12-06 13:00:00,85400.0,85600.0,85300.0,85600.0,104500,85324.0,,300.0,271.42857142857144,0,0.0,10000000,0,0.0023419203747072626,1.0106257378984649,10000000.0,1.0
2023-12-06 13:15:00,85600.0,85600.0,85500.0,85600.0,11600,85350.0,,100.0,264.2857142857143,0,0.0,10000000,0,0.0,1.0106257378984649,10000000.0,1.0
2023-12-06 13:30:00,85600.0,85600.0,85500.0,85500.0,26000,85376.0,,100.0,250.0,0,0.0,10000000,0,-0.001168224299065379,1.009445100354191,10000000.0,1.0
2023-12-06 13:45:00,85600.0,85600.0,85400.0,85500.0,39000,85400.0,,200.0,221.42857142857142,0,0.0,10000000,0,0.0,1.009445100354191,10000000.0,1.0
2023-12-06 14:00:00,85500.0,85500.0,85400.0,85500.0,34200,85426.0,,100.0,228.57142857142858,0,0.0,10000000,0,0.0,1.009445100354191,10000000.0,1.0
2023-12-06 14:15:00,85400.0,86000.0,85300.0,85900.0,167700,85458.0,,700.0,257.14285714285717,0,0.0,10000000,0,0.004678362573099504,1.0141676505312869,10000000.0,1.0
2023-12-06 14:45:00,85900.0,85900.0,85900.0,85900.0,0,85484.0,,0.0,242.85714285714286,0,0.0,10000000,0,0.0,1.0141676505312869,10000000.0,1.0
2023-12-07 09:15:00,85700.0,85900.0,85200.0,85600.0,70200,85498.0,,700.0,278.57142857142856,0,0.0,10000000,0,-0.0034924330616996624,1.010625737898465,10000000.0,1.0
2023-12-07 09:30:00,85600.0,85700.0,85300.0,85400.0,85800,85506.0,,400.0,285.7142857142857,0,0.0,10000000,0,-0.002336448598130869,1.0082644628099173,10000000.0,1.0
2023-12-07 09:45:00,85400.0,85500.0,85300.0,85400.0,92200,85512.0,,200.0,292.85714285714283,0,0.0,10000000,0,0.0,1.0082644628099173,10000000.0,1.0
2023-12-07 10:00:00,85400.0,85400.0,85000.0,85300.0,156800,85518.0,,400.0,307.14285714285717,0,0.0,10000000,0,-0.0011709601873536313,1.0070838252656433,10000000.0,1.0
2023-12-07 10:15:00,85300.0,85500.0,85200.0,85400.0,18500,85526.0,,300.0,300.0,0,0.0,10000000,0,0.0011723329425556983,1.0082644628099173,10000000.0,1.0
2023-12-07 10:30:00,85300.0,85600.0,85300.0,85400.0,32400,85536.0,,300.0,300.0,0,0.0,10000000,0,0.0,1.0082644628099173,10000000.0,1.0
2023-12-07 10:45:00,85400.0,85400.0,85200.0,85400.0,16300,85540.0,,200.0,285.7142857142857,0,0.0,10000000,0,0.0,1.0082644628099173,10000000.0,1.0
2023-12-07 11:00:00,85400.0,85600.0,85300.0,85500.0,63500,85536.0,,300.0,285.7142857142857,0,0.0,10000000,0,0.0011709601873535203,1.009445100354191,10000000.0,1.0
2023-12-07 11:15:00,85300.0,85600.0,85200.0,85200.0,19200,85524.0,,400.0,307.14285714285717,0,0.0,10000000,0,-0.0035087719298245723,1.0059031877213693,10000000.0,1.0
2023-12-07 13:00:00,85200.0,85600.0,85200.0,85400.0,34400,85510.0,,400.0,328.57142857142856,0,0.0,10000000,0,0.0023474178403755097,1.008264462809917,10000000.0,1.0
2023-12-07 13:15:00,85300.0,85400.0,85100.0,85100.0,728100,85496.0,,300.0,335.7142857142857,0,0.0,10000000,0,-0.003512880562060894,1.0047225501770953,10000000.0,1.0
2023-12-07 13:30:00,85100.0,85400.0,85100.0,85400.0,663260,85488.0,,300.0,350.0,0,0.0,10000000,0,0.003525264394829586,1.008264462809917,10000000.0,1.0
2023-12-07 13:45:00,85300.0,85400.0,85100.0,85300.0,126700,85478.0,,300.0,321.42857142857144,0,0.0,10000000,0,-0.0011709601873536313,1.007083825265643,10000000.0,1.0
2023-12-07 14:00:00,85400.0,85800.0,85400.0,85500.0,64500,85470.0,,400.0,350.0,0,0.0,10000000,0,0.0023446658851113966,1.0094451003541909,10000000.0,1.0
2023-12-07 14:15:00,85500.0,86000.0,85400.0,85800.0,183100,85468.0,,600.0,342.85714285714283,0,0.0,10000000,0,0.0035087719298245723,1.0129870129870127,10000000.0,1.0
2023-12-07 14:45:00,85200.0,85200.0,85200.0,85200.0,48500,85452.0,,0.0,314.2857142857143,0,0.0,10000000,0,-0.006993006993006978,1.0059031877213693,10000000.0,1.0
2023-12-08 09:15:00,85200.0,85500.0,85100.0,85300.0,52700,85442.0,,400.0,328.57142857142856,0,0.0,10000000,0,0.0011737089201877549,1.007083825265643,10000000.0,1.0
2023-12-08 09:30:00,85300.0,85300.0,85200.0,85200.0,36400,85426.0,,100.0,307.14285714285717,0,0.0,10000000,0,-0.0011723329425556983,1.005903187721369,10000000.0,1.0
2023-12-08 09:45:00,85200.0,85300.0,85200.0,85200.0,27900,85410.0,,100.0,292.85714285714283,0,0.0,10000000,0,0.0,1.005903187721369,10000000.0,1.0
2023-12-08 10:00:00,85200.0,85300.0,85100.0,85300.0,46900,85402.0,,200.0,285.7142857142857,0,0.0,10000000,0,0.0011737089201877549,1.0070838252656429,10000000.0,1.0
2023-12-08 10:15:00,85300.0,85300.0,85100.0,85100.0,40900,85390.0,,200.0,285.7142857142857,0,0.0,10000000,0,-0.0023446658851113966,1.004722550177095,10000000.0,1.0
2023-12-08 10:30:00,85100.0,85300.0,85100.0,85200.0,55300,85382.0,,200.0,278.57142857142856,0,0.0,10000000,0,0.001175088131609936,1.005903187721369,10000000.0,1.0
2023-12-08 10:45:00,85100.0,85300.0,85000.0,85100.0,78200,85372.0,,300.0,271.42857142857144,0,0.0,10000000,0,-0.0011737089201877549,1.0047225501770953,10000000.0,1.0
2023-12-08 11:00:00,85100.0,85200.0,85000.0,85200.0,107700,85366.0,,200.0,257.14285714285717,0,0.0,10000000,0,0.001175088131609936,1.0059031877213693,10000000.0,1.0
2023-12-08 11:15:00,85100.0,85200.0,85000.0,85100.0,36700,85358.0,,200.0,250.0,0,0.0,10000000,0,-0.0011737089201877549,1.0047225501770956,10000000.0,1.0
2023-12-08 11:30:00,85100.0,85100.0,85100.0,85100.0,15000,85354.0,,0.0,228.57142857142858,0,0.0,10000000,0,0.0,1.0047225501770956,10000000.0,1.0
2023-12-08 13:00:00,85100.0,85200.0,85100.0,85200.0,124400,85354.0,,100.0,214.28571428571428,0,0.0,10000000,0,0.001175088131609936,1.0059031877213696,10000000.0,1.0
2023-12-08 13:15:00,85100.0,85200.0,85000.0,85100.0,170300,85350.0,,200.0,200.0,0,0.0,10000000,0,-0.0011737089201877549,1.0047225501770958,10000000.0,1.0
2023-12-08 13:30:00,85100.0,85200.0,85000.0,85100.0,62400,85346.0,,200.0,171.42857142857142,0,0.0,10000000,0,0.0,1.0047225501770958,10000000.0,1.0
2023-12-08 13:45:00,85200.0,85400.0,85100.0,85200.0,107300,85344.0,,300.0,192.85714285714286,0,0.0,10000000,0,0.001175088131609936,1.0059031877213698,10000000.0,1.0
2023-12-08 14:00:00,85400.0,85500.0,85100.0,85100.0,59600,85340.0,,400.0,192.85714285714286,0,0.0,10000000,0,-0.0011737089201877549,1.004722550177096,10000000.0,1.0
2023-12-08 14:15:00,85100.0,85300.0,85000.0,85300.0,196800,85342.0,,300.0,207.14285714285714,0,0.0,10000000,0,0.00235017626321965,1.0070838252656438,10000000.0,1.0
2023-12-08 14:45:00,85000.0,85000.0,85000.0,85000.0,62800,85338.0,,0.0,200.0,0,0.0,10000000,0,-0.003516998827667095,1.003541912632822,10000000.0,1.0
2023-12-11 09:15:00,85000.0,85300.0,84800.0,84800.0,87600,85326.0,,500.0,221.42857142857142,0,0.0,10000000,0,-0.0023529411764705577,1.0011806375442742,10000000.0,1.0
2023-12-11 09:30:00,84800.0,84900.0,84500.0,84600.0,131900,85314.0,,400.0,235.71428571428572,0,0.0,10000000,0,-0.002358490566037763,0.9988193624557263,10000000.0,1.0
2023-12-11 09:45:00,84600.0,84700.0,84500.0,84700.0,94700,85306.0,,200.0,235.71428571428572,0,0.0,10000000,0,0.0011820330969267712,1.0000000000000002,10000000.0,1.0
2023-12-11 10:00:00,84600.0,84700.0,84500.0,84500.0,35600,85294.0,,200.0,228.57142857142858,0,0.0,10000000,0,-0.0023612750885477762,0.9976387249114524,10000000.0,1.0
2023-12-11 10:15:00,84500.0,84600.0,84500.0,84600.0,32000,85282.0,,100.0,221.42857142857142,0,0.0,10000000,0,0.0011834319526626835,0.9988193624557263,10000000.0,1.0
2023-12-11 10:30:00,84500.0,84600.0,84500.0,84500.0,38800,85268.0,,100.0,214.28571428571428,0,0.0,10000000,0,-0.0011820330969266601,0.9976387249114524,10000000.0,1.0
2023-12-11 10:45:00,84500.0,84600.0,84400.0,84400.0,42300,85248.0,,200.0,228.57142857142858,0,0.0,10000000,0,-0.0011834319526626835,0.9964580873671786,10000000.0,1.0
2023-12-11 11:00:00,84500.0,84500.0,84300.0,84300.0,58500,85222.0,,200.0,235.71428571428572,0,0.0,10000000,0,-0.0011848341232227888,0.9952774498229046,10000000.0,1.0
2023-12-11 11:15:00,84400.0,84500.0,84300.0,84400.0,38200,85196.0,,200.0,235.71428571428572,0,0.0,10000000,0,0.0011862396204034287,0.9964580873671786,10000000.0,1.0
2023-12-11 13:00:00,84400.0,84500.0,84200.0,84300.0,143800,85174.0,,300.0,242.85714285714286,0,0.0,10000000,0,-0.0011848341232227888,0.9952774498229046,10000000.0,1.0
2023-12-11 13:15:00,84300.0,84300.0,84200.0,84200.0,81900,85146.0,,100.0,228.57142857142858,0,0.0,10000000,0,-0.0011862396204033177,0.9940968122786307,10000000.0,1.0
2023-12-11 13:30:00,84200.0,84300.0,84100.0,84200.0,157500,85118.0,,200.0,214.28571428571428,0,0.0,10000000,0,0.0,0.9940968122786307,10000000.0,1.0
2023-12-11 13:45:00,84200.0,84300.0,84200.0,84200.0,143000,85092.0,,100.0,200.0,0,0.0,10000000,0,0.0,0.9940968122786307,10000000.0,1.0
2023-12-11 14:00:00,84300.0,84500.0,84200.0,84400.0,116500,85070.0,,300.0,221.42857142857142,0,0.0,10000000,0,0.002375296912114022,0.9964580873671784,10000000.0,1.0
2023-12-11 14:15:00,84400.0,84600.0,84200.0,84200.0,1428200,85044.0,,400.0,214.28571428571428,0,0.0,10000000,0,-0.0023696682464454666,0.9940968122786307,10000000.0,1.0
2023-12-11 14:45:00,84200.0,84200.0,84200.0,84200.0,0,85010.0,,0.0,185.71428571428572,0,0.0,10000000,0,0.0,0.9940968122786307,10000000.0,1.0
2023-12-12 09:15:00,84700.0,84700.0,84300.0,84400.0,70500,84980.0,,400.0,200.0,0,0.0,10000000,0,0.002375296912114022,0.9964580873671784,10000000.0,1.0
2023-12-12 09:30:00,84400.0,84500.0,84400.0,84400.0,28000,84956.0,,100.0,192.85714285714286,0,0.0,10000000,0,0.0,0.9964580873671784,10000000.0,1.0
2023-12-12 09:45:00,84400.0,84500.0,84000.0,84100.0,188300,84930.0,,500.0,221.42857142857142,0,0.0,10000000,0,-0.0035545023696682554,0.9929161747343567,10000000.0,1.0
2023-12-12 10:00:00,84200.0,84200.0,84100.0,84100.0,30600,84904.0,,100.0,221.42857142857142,0,0.0,10000000,0,0.0,0.9929161747343567,10000000.0,1.0
2023-12-12 10:15:00,84100.0,84200.0,84100.0,84100.0,63200,84880.0,,100.0,214.28571428571428,0,0.0,10000000,0,0.0,0.9929161747343567,10000000.0,1.0
2023-12-12 10:30:00,84200.0,84200.0,84100.0,84100.0,32700,84854.0,,100.0,207.14285714285714,0,0.0,10000000,0,0.0,0.9929161747343567,10000000.0,1.0
2023-12-12 10:45:00,84200.0,84200.0,84100.0,84100.0,48600,84828.0,,100.0,200.0,0,0.0,10000000,0,0.0,0.9929161747343567,10000000.0,1.0
2023-12-12 11:00:00,84200.0,84200.0,84000.0,84000.0,70700,84800.0,,200.0,192.85714285714286,0,0.0,10000000,0,-0.0011890606420927874,0.9917355371900827,10000000.0,1.0
2023-12-12 11:15:00,84100.0,84200.0,84000.0,84000.0,65800,84770.0,,200.0,200.0,0,0.0,10000000,0,0.0,0.9917355371900827,10000000.0,1.0
2023-12-12 13:00:00,84100.0,84100.0,84000.0,84000.0,40500,84746.0,,100.0,192.85714285714286,0,0.0,10000000,0,0.0,0.9917355371900827,10000000.0,1.0
2023-12-12 13:15:00,84000.0,84200.0,84000.0,84200.0,109400,84722.0,,200.0,200.0,0,0.0,10000000,0,0.0023809523809523725,0.9940968122786304,10000000.0,1.0
2023-12-12 13:30:00,84100.0,84200.0,84000.0,84100.0,129900,84702.0,,200.0,192.85714285714286,0,0.0,10000000,0,-0.001187648456057011,0.9929161747343566,10000000.0,1.0
2023-12-12 13:45:00,84100.0,84200.0,84100.0,84200.0,81200,84678.0,,100.0,171.42857142857142,0,0.0,10000000,0,0.0011890606420927874,0.9940968122786306,10000000.0,1.0
2023-12-12 14:00:00,84100.0,84400.0,84100.0,84300.0,76900,84658.0,,300.0,192.85714285714286,0,0.0,10000000,0,0.0011876484560569,0.9952774498229043,10000000.0,1.0
2023-12-12 14:15:00,84300.0,84400.0,84200.0,84300.0,61400,84634.0,,200.0,178.57142857142858,0,0.0,10000000,0,0.0,0.9952774498229043,10000000.0,1.0
2023-12-12 14:45:00,84200.0,84200.0,84200.0,84200.0,0,84602.0,,0.0,171.42857142857142,0,0.0,10000000,0,-0.0011862396204033177,0.9940968122786304,10000000.0,1.0
2023-12-13 09:15:00,84200.0,84400.0,84200.0,84300.0,46300,84584.0,,200.0,150.0,0,0.0,10000000,0,0.0011876484560569,0.9952774498229042,10000000.0,1.0
2023-12-13 09:30:00,84200.0,84500.0,84100.0,84300.0,59900,84564.0,,400.0,171.42857142857142,0,0.0,10000000,0,0.0,0.9952774498229042,10000000.0,1.0
2023-12-13 09:45:00,84300.0,84500.0,84200.0,84300.0,37600,84546.0,,300.0,185.71428571428572,0,0.0,10000000,0,0.0,0.9952774498229042,10000000.0,1.0
2023-12-13 10:00:00,84300.0,84400.0,84300.0,84300.0,25000,84528.0,,100.0,185.71428571428572,0,0.0,10000000,0,0.0,0.9952774498229042,10000000.0,1.0
2023-12-13 10:15:00,84400.0,84400.0,84200.0,84200.0,24200,84506.0,,200.0,192.85714285714286,0,0.0,10000000,0,-0.0011862396204033177,0.9940968122786303,10000000.0,1.0
2023-12-13 10:30:00,84300.0,84300.0,84200.0,84300.0,31700,84490.0,,100.0,185.71428571428572,0,0.0,10000000,0,0.0011876484560569,0.9952774498229041,10000000.0,1.0
2023-12-13 10:45:00,84200.0,84300.0,84200.0,84200.0,48700,84470.0,,100.0,178.57142857142858,0,0.0,10000000,0,-0.0011862396204033177,0.9940968122786302,10000000.0,1.0
2023-12-13 11:00:00,84200.0,84300.0,84100.0,84200.0,43700,84452.0,,200.0,185.71428571428572,0,0.0,10000000,0,0.0,0.9940968122786302,10000000.0,1.0
2023-12-13 11:15:00,84200.0,84300.0,84100.0,84100.0,19900,84430.0,,200.0,185.71428571428572,0,0.0,10000000,0,-0.001187648456057011,0.9929161747343563,10000000.0,1.0
2023-12-13 13:00:00,84400.0,84500.0,84100.0,84200.0,72700,84412.0,,400.0,200.0,0,0.0,10000000,0,0.0011890606420927874,0.9940968122786303,10000000.0,1.0
2023-12-13 13:15:00,84200.0,84300.0,84100.0,84200.0,305360,84394.0,,200.0,207.14285714285714,0,0.0,10000000,0,0.0,0.9940968122786303,10000000.0,1.0
2023-12-13 13:30:00,84200.0,84400.0,84100.0,84200.0,1115240,84374.0,,300.0,207.14285714285714,0,0.0,10000000,0,0.0,0.9940968122786303,10000000.0,1.0
2023-12-13 13:45:00,84300.0,84300.0,84100.0,84100.0,72300,84354.0,,200.0,207.14285714285714,0,0.0,10000000,0,-0.001187648456057011,0.9929161747343564,10000000.0,1.0
2023-12-13 14:00:00,84200.0,84200.0,84100.0,84100.0,79600,84334.0,,100.0,214.28571428571428,0,0.0,10000000,0,0.0,0.9929161747343564,10000000.0,1.0
2023-12-13 14:15:00,84200.0,84300.0,83800.0,83900.0,368600,84308.0,,500.0,235.71428571428572,0,0.0,10000000,0,-0.0023781212841854638,0.9905548996458087,10000000.0,1.0
2023-12-13 14:45:00,83700.0,83700.0,83700.0,83700.0,170200,84280.0,,0.0,207.14285714285714,0,0.0,10000000,0,-0.0023837902264600697,0.9881936245572609,10000000.0,1.0
2023-12-14 09:15:00,84000.0,84200.0,84000.0,84000.0,45300,84254.0,,200.0,200.0,0,0.0,10000000,0,0.0035842293906809264,0.9917355371900826,10000000.0,1.0
2023-12-14 09:30:00,84000.0,84100.0,84000.0,84000.0,32300,84234.0,,100.0,200.0,0,0.0,10000000,0,0.0,0.9917355371900826,10000000.0,1.0
2023-12-14 09:45:00,84100.0,84200.0,84000.0,84000.0,30600,84218.0,,200.0,200.0,0,0.0,10000000,0,0.0,0.9917355371900826,10000000.0,1.0
2023-12-14 10:00:00,84000.0,84200.0,84000.0,84000.0,42400,84206.0,,200.0,207.14285714285714,0,0.0,10000000,0,0.0,0.9917355371900826,10000000.0,1.0
2023-12-14 10:15:00,84000.0,84300.0,84000.0,84100.0,52500,84194.0,,300.0,221.42857142857142,0,0.0,10000000,0,0.0011904761904761862,0.9929161747343564,10000000.0,1.0
2023-12-14 10:30:00,84100.0,84300.0,84100.0,84200.0,37300,84188.0,,200.0,221.42857142857142,0,0.0,10000000,0,0.0011890606420927874,0.9940968122786304,10000000.0,1.0
2023-12-14 10:45:00,84200.0,84300.0,84100.0,84200.0,60400,84180.0,,200.0,221.42857142857142,0,0.0,10000000,0,0.0,0.9940968122786304,10000000.0,1.0
2023-12-14 11:00:00,84200.0,84400.0,84200.0,84300.0,43000,84176.0,,200.0,207.14285714285714,0,0.0,10000000,0,0.0011876484560569,0.9952774498229042,10000000.0,1.0
2023-12-14 11:15:00,84300.0,84500.0,84300.0,84400.0,44500,84176.0,,200.0,207.14285714285714,0,0.0,10000000,0,0.0011862396204034287,0.9964580873671782,10000000.0,1.0
2023-12-14 13:00:00,84300.0,84400.0,84200.0,84300.0,120700,84176.0,,200.0,200.0,0,0.0,10000000,0,-0.0011848341232227888,0.9952774498229042,10000000.0,1.0
2023-12-14 13:15:00,84300.0,84400.0,84200.0,84300.0,122700,84174.0,,200.0,200.0,0,0.0,10000000,0,0.0,0.9952774498229042,10000000.0,1.0
2023-12-14 13:30:00,84300.0,84400.0,84200.0,84300.0,62100,84174.0,,200.0,207.14285714285714,0,0.0,10000000,0,0.0,0.9952774498229042,10000000.0,1.0
2023-12-14 13:45:00,84300.0,84400.0,84200.0,84300.0,40900,84176.0,,200.0,185.71428571428572,0,0.0,10000000,0,0.0,0.9952774498229042,10000000.0,1.0
2023-12-14 14:00:00,84300.0,84300.0,84100.0,84100.0,84400,84174.0,,200.0,200.0,0,0.0,10000000,0,-0.0023724792408066353,0.9929161747343564,10000000.0,1.0
2023-12-14 14:15:00,84200.0,84400.0,84000.0,84400.0,105600,84178.0,,400.0,214.28571428571428,0,0.0,10000000,0,0.00356718192627814,0.9964580873671781,10000000.0,1.0
2023-12-14 14:45:00,84400.0,84400.0,84400.0,84400.0,0,84178.0,,0.0,207.14285714285714,0,0.0,10000000,0,0.0,0.9964580873671781,10000000.0,1.0
2023-12-15 09:15:00,84000.0,84300.0,83900.0,84000.0,57401,84174.0,,400.0,221.42857142857142,0,0.0,10000000,0,-0.004739336492891044,0.9917355371900825,10000000.0,1.0
2023-12-15 09:30:00,84000.0,84400.0,84000.0,84200.0,25200,84174.0,,400.0,235.71428571428572,0,0.0,10000000,0,0.0023809523809523725,0.9940968122786302,10000000.0,1.0
2023-12-15 09:45:00,84200.0,84300.0,84100.0,84100.0,14900,84168.0,,200.0,228.57142857142858,0,0.0,10000000,0,-0.001187648456057011,0.9929161747343563,10000000.0,1.0
2023-12-15 10:00:00,84100.0,84200.0,84000.0,84100.0,26300,84162.0,,200.0,228.57142857142858,0,0.0,10000000,0,0.0,0.9929161747343563,10000000.0,1.0
2023-12-15 10:15:00,84100.0,84200.0,84100.0,84100.0,25200,84162.0,,100.0,221.42857142857142,0,0.0,10000000,0,0.0,0.9929161747343563,10000000.0,1.0
2023-12-15 10:30:00,84100.0,84200.0,84100.0,84100.0,23700,84162.0,,100.0,214.28571428571428,0,0.0,10000000,0,0.0,0.9929161747343563,10000000.0,1.0
2023-12-15 10:45:00,84200.0,84300.0,84100.0,84100.0,42800,84162.0,,200.0,214.28571428571428,0,0.0,10000000,0,0.0,0.9929161747343563,10000000.0,1.0
2023-12-15 11:00:00,84100.0,84200.0,84000.0,84000.0,30000,84160.0,,200.0,214.28571428571428,0,0.0,10000000,0,-0.0011890606420927874,0.9917355371900823,10000000.0,1.0
2023-12-15 11:15:00,84000.0,84200.0,83900.0,84000.0,52000,84158.0,,300.0,221.42857142857142,0,0.0,10000000,0,0.0,0.9917355371900823,10000000.0,1.0
2023-12-15 13:00:00,84000.0,84000.0,83800.0,83800.0,139300,84154.0,,200.0,221.42857142857142,0,0.0,10000000,0,-0.0023809523809523725,0.9893742621015346,10000000.0,1.0
2023-12-15 13:15:00,83800.0,84200.0,83800.0,84000.0,128900,84154.0,,400.0,235.71428571428572,0,0.0,10000000,0,0.0023866348448686736,0.9917355371900823,10000000.0,1.0
2023-12-15 13:30:00,84000.0,84100.0,83800.0,83900.0,48400,84152.0,,300.0,242.85714285714286,0,0.0,10000000,0,-0.0011904761904761862,0.9905548996458085,10000000.0,1.0
2023-12-15 13:45:00,83900.0,84000.0,83800.0,83800.0,56700,84144.0,,200.0,228.57142857142858,0,0.0,10000000,0,-0.0011918951132300348,0.9893742621015346,10000000.0,1.0
2023-12-15 14:00:00,83900.0,84200.0,83900.0,83900.0,107600,84140.0,,300.0,250.0,0,0.0,10000000,0,0.0011933174224343368,0.9905548996458085,10000000.0,1.0
2023-12-15 14:15:00,84000.0,84000.0,83800.0,83900.0,123600,84134.0,,200.0,235.71428571428572,0,0.0,10000000,0,0.0,0.9905548996458085,10000000.0,1.0
2023-12-15 14:45:00,82200.0,82200.0,82200.0,82200.0,1746399,84092.0,,0.0,207.14285714285714,0,0.0,10000000,0,-0.020262216924910592,0.970484061393152,10000000.0,1.0
2023-12-18 09:15:00,82800.0,82900.0,82500.0,82500.0,139600,84056.0,,400.0,221.42857142857142,0,0.0,10000000,0,0.0036496350364962904,0.9740259740259737,10000000.0,1.0
2023-12-18 09:30:00,82600.0,82700.0,82500.0,82700.0,52400,84026.0,,200.0,221.42857142857142,0,0.0,10000000,0,0.00242424242424244,0.9763872491145215,10000000.0,1.0
2023-12-18 09:45:00,82600.0,82700.0,82500.0,82700.0,83900,83994.0,,200.0,228.57142857142858,0,0.0,10000000,0,0.0,0.9763872491145215,10000000.0,1.0
2023-12-18 10:00:00,82600.0,82700.0,82500.0,82600.0,51300,83960.0,,200.0,235.71428571428572,0,0.0,10000000,0,-0.0012091898428052694,0.9752066115702476,10000000.0,1.0
2023-12-18 10:15:00,82600.0,82600.0,82300.0,82400.0,49300,83922.0,,300.0,242.85714285714286,0,0.0,10000000,0,-0.002421307506053294,0.9728453364816997,10000000.0,1.0
2023-12-18 10:30:00,82500.0,82500.0,82300.0,82400.0,31300,83884.0,,200.0,242.85714285714286,0,0.0,10000000,0,0.0,0.9728453364816997,10000000.0,1.0
2023-12-18 10:45:00,82400.0,82400.0,82000.0,82000.0,132200,83840.0,,400.0,250.0,0,0.0,10000000,0,-0.004854368932038833,0.968122786304604,10000000.0,1.0
2023-12-18 11:00:00,82100.0,82200.0,82000.0,82100.0,92800,83796.0,,200.0,250.0,0,0.0,10000000,0,0.0012195121951219523,0.9693034238488779,10000000.0,1.0
2023-12-18 11:15:00,82100.0,82100.0,81500.0,81700.0,221500,83746.0,,600.0,264.2857142857143,0,0.0,10000000,0,-0.00487210718635811,0.9645808736717822,10000000.0,1.0
2023-12-18 13:00:00,81700.0,82000.0,81700.0,81800.0,155500,83698.0,,300.0,264.2857142857143,0,0.0,10000000,0,0.001223990208078396,0.9657615112160562,10000000.0,1.0
2023-12-18 13:15:00,81700.0,81800.0,81600.0,81600.0,303000,83648.0,,200.0,264.2857142857143,0,0.0,10000000,0,-0.0024449877750610804,0.9634002361275085,10000000.0,1.0
2023-12-18 13:30:00,81600.0,81800.0,81500.0,81800.0,134400,83600.0,,300.0,264.2857142857143,0,0.0,10000000,0,0.002450980392156854,0.9657615112160562,10000000.0,1.0
2023-12-18 13:45:00,81800.0,81900.0,81600.0,81800.0,65700,83552.0,,300.0,271.42857142857144,0,0.0,10000000,0,0.0,0.9657615112160562,10000000.0,1.0
2023-12-18 14:00:00,81800.0,81900.0,81600.0,81900.0,122200,83506.0,,300.0,292.85714285714283,0,0.0,10000000,0,0.0012224938875304847,0.96694214876033,10000000.0,1.0
2023-12-18 14:15:00,81900.0,82200.0,81600.0,81700.0,164500,83458.0,,600.0,307.14285714285717,0,0.0,10000000,0,-0.0024420024420024333,0.9645808736717822,10000000.0,1.0
2023-12-18 14:45:00,81500.0,81500.0,81500.0,81500.0,118800,83406.0,,0.0,292.85714285714283,0,0.0,10000000,0,-0.002447980416156681,0.9622195985832345,10000000.0,1.0
2023-12-19 09:15:00,81500.0,81500.0,81200.0,81200.0,72800,83352.0,,300.0,300.0,0,0.0,10000000,0,-0.0036809815950920033,0.9586776859504128,10000000.0,1.0
2023-12-19 09:30:00,81300.0,81300.0,81200.0,81300.0,71700,83304.0,,100.0,292.85714285714283,0,0.0,10000000,0,0.0012315270935960854,0.9598583234946867,10000000.0,1.0
2023-12-19 09:45:00,81300.0,81400.0,81200.0,81200.0,55800,83248.0,,200.0,285.7142857142857,0,0.0,10000000,0,-0.0012300123001229846,0.9586776859504128,10000000.0,1.0
2023-12-19 10:00:00,81200.0,81300.0,81200.0,81300.0,34500,83194.0,,100.0,278.57142857142856,0,0.0,10000000,0,0.0012315270935960854,0.9598583234946867,10000000.0,1.0
2023-12-19 10:15:00,81300.0,81300.0,81200.0,81200.0,35600,83138.0,,100.0,257.14285714285717,0,0.0,10000000,0,-0.0012300123001229846,0.9586776859504128,10000000.0,1.0
2023-12-19 10:30:00,81200.0,81300.0,81200.0,81200.0,42900,83082.0,84441.5,100.0,250.0,0,0.0,10000000,0,0.0,0.9586776859504128,10000000.0,1.0
2023-12-19 10:45:00,81200.0,81200.0,81000.0,81000.0,105800,83020.0,84423.0,200.0,221.42857142857142,0,0.0,10000000,0,-0.0024630541871921707,0.9563164108618649,10000000.0,1.0
2023-12-19 11:00:00,81100.0,81300.0,81000.0,81000.0,61000,82956.0,84404.5,300.0,221.42857142857142,0,0.0,10000000,0,0.0,0.9563164108618649,10000000.0,1.0
2023-12-19 11:15:00,81000.0,81100.0,81000.0,81100.0,42800,82894.0,84387.5,100.0,214.28571428571428,0,0.0,10000000,0,0.0012345679012346622,0.9574970484061389,10000000.0,1.0
2023-12-19 13:00:00,81000.0,81100.0,80700.0,80800.0,205600,82824.0,84369.0,400.0,221.42857142857142,0,0.0,10000000,0,-0.0036991368680641123,0.9539551357733173,10000000.0,1.0
2023-12-19 13:15:00,80900.0,81000.0,80700.0,80700.0,242300,82750.0,84350.0,300.0,221.42857142857142,0,0.0,10000000,0,-0.0012376237623762387,0.9527744982290434,10000000.0,1.0
2023-12-19 13:30:00,80800.0,80800.0,80400.0,80400.0,217100,82672.0,84329.5,400.0,228.57142857142858,0,0.0,10000000,0,-0.0037174721189591198,0.9492325855962216,10000000.0,1.0
2023-12-19 13:45:00,80500.0,80700.0,80400.0,80600.0,103900,82598.0,84311.0,300.0,207.14285714285714,0,0.0,10000000,0,0.0024875621890547706,0.9515938606847695,10000000.0,1.0
2023-12-19 14:00:00,80500.0,80700.0,80400.0,80400.0,105000,82520.0,84291.5,300.0,228.57142857142858,0,0.0,10000000,0,-0.002481389578163795,0.9492325855962216,10000000.0,1.0
2023-12-19 14:15:00,80400.0,81200.0,80100.0,80600.0,495000,82446.0,84273.0,1100.0,285.7142857142857,0,0.0,10000000,0,0.0024875621890547706,0.9515938606847695,10000000.0,1.0
2023-12-19 14:30:00,81100.0,81100.0,81100.0,81100.0,100,82386.0,84257.0,0.0,278.57142857142856,0,0.0,10000000,0,0.006203473945409321,0.9574970484061389,10000000.0,1.0
2023-12-19 14:45:00,81200.0,81200.0,81200.0,81200.0,176000,82322.0,84242.0,0.0,264.2857142857143,0,0.0,10000000,0,0.0012330456226881115,0.9586776859504129,10000000.0,1.0
2023-12-20 09:15:00,81200.0,81200.0,80800.0,80900.0,84200,82252.0,84225.0,400.0,285.7142857142857,0,0.0,10000000,0,-0.003694581280788145,0.9551357733175913,10000000.0,1.0
2023-12-20 09:30:00,80900.0,81000.0,80800.0,81000.0,195700,82192.0,84209.0,200.0,292.85714285714283,0,0.0,10000000,0,0.0012360939431397266,0.9563164108618653,10000000.0,1.0
2023-12-20 09:45:00,80900.0,80900.0,80800.0,80800.0,102200,82124.0,84191.5,100.0,292.85714285714283,0,0.0,10000000,0,-0.0024691358024691024,0.9539551357733175,10000000.0,1.0
2023-12-20 10:00:00,80800.0,80900.0,80800.0,80900.0,62600,82060.0,84173.0,100.0,285.7142857142857,0,0.0,10000000,0,0.0012376237623761277,0.9551357733175913,10000000.0,1.0
2023-12-20 10:15:00,80800.0,80900.0,80800.0,80800.0,64300,81994.0,84152.5,100.0,271.42857142857144,0,0.0,10000000,0,-0.0012360939431397266,0.9539551357733173,10000000.0,1.0
2023-12-20 10:30:00,80800.0,80900.0,80800.0,80800.0,86700,81928.0,84131.5,100.0,271.42857142857144,0,0.0,10000000,0,0.0,0.9539551357733173,10000000.0,1.0
2023-12-20 10:45:00,80800.0,80900.0,80700.0,80700.0,70500,81860.0,84109.5,200.0,257.14285714285717,0,0.0,10000000,0,-0.0012376237623762387,0.9527744982290434,10000000.0,1.0
2023-12-20 11:00:00,80800.0,80800.0,80700.0,80700.0,47800,81792.0,84088.0,100.0,242.85714285714286,0,0.0,10000000,0,0.0,0.9527744982290434,10000000.0,1.0
2023-12-20 11:15:00,80700.0,80800.0,80600.0,80600.0,107300,81724.0,84066.0,200.0,228.57142857142858,0,0.0,10000000,0,-0.0012391573729864103,0.9515938606847694,10000000.0,1.0
2023-12-20 13:00:00,80600.0,80700.0,80600.0,80600.0,107100,81656.0,84044.5,100.0,214.28571428571428,0,0.0,10000000,0,0.0,0.9515938606847694,10000000.0,1.0
2023-12-20 13:15:00,80700.0,80700.0,80500.0,80600.0,140600,81592.0,84021.5,200.0,207.14285714285714,0,0.0,10000000,0,0.0,0.9515938606847694,10000000.0,1.0
2023-12-20 13:30:00,80700.0,80800.0,80600.0,80600.0,183100,81524.0,83996.0,200.0,142.85714285714286,0,0.0,10000000,0,0.0,0.9515938606847694,10000000.0,1.0
2023-12-20 13:45:00,80700.0,80800.0,80600.0,80800.0,93900,81462.0,83971.0,200.0,157.14285714285714,0,0.0,10000000,0,0.002481389578163684,0.9539551357733171,10000000.0,1.0
2023-12-20 14:00:00,80600.0,81100.0,80600.0,81000.0,204800,81406.0,83945.5,500.0,192.85714285714286,0,0.0,10000000,0,0.0024752475247524774,0.9563164108618649,10000000.0,1.0
2023-12-20 14:15:00,81000.0,81300.0,80800.0,80800.0,198900,81344.0,83920.5,500.0,200.0,0,0.0,10000000,0,-0.0024691358024691024,0.9539551357733171,10000000.0,1.0
2023-12-20 14:45:00,81100.0,81100.0,81100.0,81100.0,239800,81288.0,83897.0,0.0,185.71428571428572,0,0.0,10000000,0,0.003712871287128605,0.9574970484061388,10000000.0,1.0
2023-12-21 09:15:00,81000.0,81000.0,80700.0,80800.0,28500,81260.0,83872.0,300.0,200.0,0,0.0,10000000,0,-0.0036991368680641123,0.9539551357733171,10000000.0,1.0
2023-12-21 09:30:00,80900.0,80900.0,80700.0,80800.0,21100,81226.0,83846.5,200.0,207.14285714285714,0,0.0,10000000,0,0.0,0.9539551357733171,10000000.0,1.0
2023-12-21 09:45:00,80800.0,80900.0,80700.0,80700.0,34600,81186.0,83820.5,200.0,214.28571428571428,0,0.0,10000000,0,-0.0012376237623762387,0.9527744982290433,10000000.0,1.0
2023-12-21 10:00:00,80700.0,80800.0,80700.0,80700.0,100100,81146.0,83794.0,100.0,214.28571428571428,0,0.0,10000000,0,0.0,0.9527744982290433,10000000.0,1.0
2023-12-21 10:15:00,80700.0,80800.0,80700.0,80800.0,71700,81110.0,83769.0,100.0,207.14285714285714,0,0.0,10000000,0,0.0012391573729864103,0.9539551357733173,10000000.0,1.0
2023-12-21 10:30:00,80700.0,80800.0,80600.0,80700.0,98500,81076.0,83742.5,200.0,214.28571428571428,0,0.0,10000000,0,-0.0012376237623762387,0.9527744982290434,10000000.0,1.0
2023-12-21 10:45:00,80600.0,80700.0,80500.0,80500.0,173600,81038.0,83715.0,200.0,214.28571428571428,0,0.0,10000000,0,-0.0024783147459727095,0.9504132231404956,10000000.0,1.0
2023-12-21 11:00:00,80500.0,80700.0,80400.0,80500.0,194800,81008.0,83689.0,300.0,228.57142857142858,0,0.0,10000000,0,0.0,0.9504132231404956,10000000.0,1.0
2023-12-21 11:15:00,80500.0,80500.0,80400.0,80400.0,88000,80974.0,83662.5,100.0,221.42857142857142,0,0.0,10000000,0,-0.001242236024844745,0.9492325855962217,10000000.0,1.0
2023-12-21 11:30:00,80400.0,80400.0,80400.0,80400.0,2000,80948.0,83636.5,0.0,207.14285714285714,0,0.0,10000000,0,0.0,0.9492325855962217,10000000.0,1.0
2023-12-21 13:00:00,80400.0,80500.0,80300.0,80400.0,146400,80920.0,83610.5,200.0,207.14285714285714,0,0.0,10000000,0,0.0,0.9492325855962217,10000000.0,1.0
2023-12-21 13:15:00,80400.0,80600.0,80400.0,80500.0,236900,80898.0,83585.5,200.0,185.71428571428572,0,0.0,10000000,0,0.0012437810945273853,0.9504132231404956,10000000.0,1.0
2023-12-21 13:30:00,80400.0,80600.0,80400.0,80500.0,204600,80872.0,83560.5,200.0,164.28571428571428,0,0.0,10000000,0,0.0,0.9504132231404956,10000000.0,1.0
2023-12-21 13:45:00,80500.0,80600.0,80400.0,80500.0,169900,80846.0,83536.5,200.0,178.57142857142858,0,0.0,10000000,0,0.0,0.9504132231404956,10000000.0,1.0
2023-12-21 14:00:00,80500.0,80600.0,80400.0,80500.0,175900,80818.0,83513.0,200.0,171.42857142857142,0,0.0,10000000,0,0.0,0.9504132231404956,10000000.0,1.0
2023-12-21 14:15:00,80500.0,81000.0,80500.0,80900.0,215100,80802.0,83491.0,500.0,192.85714285714286,0,0.0,10000000,0,0.00496894409937898,0.9551357733175914,10000000.0,1.0
2023-12-21 14:45:00,80900.0,80900.0,80900.0,80900.0,164600,80790.0,83469.0,0.0,178.57142857142858,0,0.0,10000000,0,0.0,0.9551357733175914,10000000.0,1.0
2023-12-22 09:15:00,80900.0,80900.0,80500.0,80700.0,41000,80780.0,83446.0,400.0,200.0,0,0.0,10000000,0,-0.0024721878862793423,0.9527744982290436,10000000.0,1.0
2023-12-22 09:30:00,80800.0,80900.0,80600.0,80600.0,62900,80766.0,83422.5,300.0,214.28571428571428,0,0.0,10000000,0,-0.0012391573729864103,0.9515938606847696,10000000.0,1.0
2023-12-22 09:45:00,80600.0,80700.0,80500.0,80700.0,86700,80756.0,83400.0,200.0,214.28571428571428,0,0.0,10000000,0,0.001240694789081953,0.9527744982290436,10000000.0,1.0
2023-12-22 10:00:00,80700.0,80700.0,80500.0,80600.0,52700,80742.0,83377.0,200.0,214.28571428571428,0,0.0,10000000,0,-0.0012391573729864103,0.9515938606847696,10000000.0,1.0
2023-12-22 10:15:00,80600.0,80600.0,80500.0,80600.0,34600,80730.0,83353.0,100.0,200.0,0,0.0,10000000,0,0.0,0.9515938606847696,10000000.0,1.0
2023-12-22 10:30:00,80600.0,80600.0,80500.0,80600.0,45200,80718.0,83330.0,100.0,200.0,0,0.0,10000000,0,0.0,0.9515938606847696,10000000.0,1.0
2023-12-22 10:45:00,80600.0,80700.0,80500.0,80600.0,51000,80710.0,83307.5,200.0,214.28571428571428,0,0.0,10000000,0,0.0,0.9515938606847696,10000000.0,1.0
2023-12-22 11:00:00,80700.0,80700.0,80400.0,80500.0,68700,80700.0,83284.5,300.0,221.42857142857142,0,0.0,10000000,0,-0.001240694789081842,0.9504132231404957,10000000.0,1.0
2023-12-22 11:15:00,80600.0,80700.0,80500.0,80500.0,31700,80688.0,83261.0,200.0,221.42857142857142,0,0.0,10000000,0,0.0,0.9504132231404957,10000000.0,1.0
2023-12-22 13:00:00,80600.0,80800.0,80500.0,80800.0,99900,80688.0,83239.0,300.0,228.57142857142858,0,0.0,10000000,0,0.003726708074534235,0.9539551357733175,10000000.0,1.0
2023-12-22 13:15:00,80800.0,80900.0,80600.0,80800.0,132200,80690.0,83216.0,300.0,235.71428571428572,0,0.0,10000000,0,0.0,0.9539551357733175,10000000.0,1.0
2023-12-22 13:30:00,80800.0,80900.0,80800.0,80900.0,133300,80700.0,83192.5,100.0,228.57142857142858,0,0.0,10000000,0,0.0012376237623761277,0.9551357733175913,10000000.0,1.0
2023-12-22 13:45:00,80800.0,80900.0,80500.0,80600.0,203800,80700.0,83167.0,400.0,221.42857142857142,0,0.0,10000000,0,-0.003708281829419069,0.9515938606847695,10000000.0,1.0
2023-12-22 14:00:00,80500.0,80700.0,80500.0,80600.0,221300,80704.0,83143.0,200.0,235.71428571428572,0,0.0,10000000,0,0.0,0.9515938606847695,10000000.0,1.0
2023-12-22 14:15:00,80600.0,81100.0,80500.0,81000.0,283700,80712.0,83120.0,600.0,250.0,0,0.0,10000000,0,0.00496277915632759,0.9563164108618651,10000000.0,1.0
2023-12-22 14:45:00,80900.0,80900.0,80900.0,80900.0,153400,80708.0,83096.5,0.0,228.57142857142858,0,0.0,10000000,0,-0.0012345679012345512,0.9551357733175913,10000000.0,1.0
2023-12-25 09:15:00,80900.0,81100.0,80700.0,80900.0,66700,80702.0,83073.5,400.0,242.85714285714286,0,0.0,10000000,0,0.0,0.9551357733175913,10000000.0,1.0
2023-12-25 09:30:00,80900.0,81700.0,80900.0,81700.0,90800,80718.0,83054.5,800.0,285.7142857142857,0,0.0,10000000,0,0.009888751545117369,0.9645808736717825,10000000.0,1.0
2023-12-25 09:45:00,81700.0,81800.0,81400.0,81600.0,64600,80730.0,83035.0,400.0,307.14285714285717,0,0.0,10000000,0,-0.001223990208078285,0.9634002361275086,10000000.0,1.0
2023-12-25 10:00:00,81600.0,81700.0,81400.0,81500.0,43000,80744.0,83013.0,300.0,321.42857142857144,0,0.0,10000000,0,-0.001225490196078427,0.9622195985832347,10000000.0,1.0
2023-12-25 10:15:00,81500.0,81600.0,81200.0,81300.0,92300,80752.0,82990.0,400.0,335.7142857142857,0,0.0,10000000,0,-0.0024539877300613355,0.9598583234946869,10000000.0,1.0
2023-12-25 10:30:00,81300.0,81500.0,81300.0,81400.0,35400,80764.0,82969.0,200.0,328.57142857142856,0,0.0,10000000,0,0.0012300123001229846,0.9610389610389608,10000000.0,1.0
2023-12-25 10:45:00,81500.0,81500.0,81300.0,81300.0,26800,80774.0,82948.5,200.0,328.57142857142856,0,0.0,10000000,0,-0.0012285012285012664,0.9598583234946868,10000000.0,1.0
2023-12-25 11:00:00,81400.0,81400.0,81200.0,81300.0,40700,80786.0,82928.0,200.0,321.42857142857144,0,0.0,10000000,0,0.0,0.9598583234946868,10000000.0,1.0
2023-12-25 11:15:00,81300.0,81500.0,81200.0,81300.0,39500,80798.0,82908.0,300.0,321.42857142857144,0,0.0,10000000,0,0.0,0.9598583234946868,10000000.0,1.0
2023-12-25 13:00:00,81300.0,81500.0,81300.0,81400.0,76300,80814.0,82888.0,200.0,328.57142857142856,0,0.0,10000000,0,0.0012300123001229846,0.9610389610389607,10000000.0,1.0
2023-12-25 13:15:00,81400.0,81600.0,81400.0,81500.0,135200,80832.0,82868.5,200.0,314.2857142857143,0,0.0,10000000,0,0.0012285012285011554,0.9622195985832346,10000000.0,1.0
2023-12-25 13:30:00,81500.0,81600.0,81400.0,81400.0,91000,80848.0,82848.5,200.0,314.2857142857143,0,0.0,10000000,0,-0.0012269938650306678,0.9610389610389607,10000000.0,1.0
2023-12-25 13:45:00,81500.0,81600.0,81200.0,81300.0,224100,80862.0,82827.5,400.0,300.0,0,0.0,10000000,0,-0.0012285012285012664,0.9598583234946867,10000000.0,1.0
2023-12-25 14:00:00,81300.0,81500.0,81300.0,81500.0,103000,80876.0,82809.0,200.0,314.2857142857143,0,0.0,10000000,0,0.002460024600245969,0.9622195985832345,10000000.0,1.0
2023-12-25 14:15:00,81600.0,81800.0,81400.0,81600.0,230200,80888.0,82790.0,400.0,314.2857142857143,0,0.0,10000000,0,0.0012269938650306678,0.9634002361275084,10000000.0,1.0
2023-12-25 14:45:00,81800.0,81800.0,81800.0,81800.0,91700,80908.0,82773.5,0.0,257.14285714285717,0,0.0,10000000,0,0.002450980392156854,0.9657615112160561,10000000.0,1.0
2023-12-26 09:15:00,82000.0,82700.0,82000.0,82500.0,145600,80936.0,82759.0,700.0,278.57142857142856,0,0.0,10000000,0,0.008557457212713837,0.9740259740259734,10000000.0,1.0
2023-12-26 09:30:00,82500.0,82600.0,82400.0,82400.0,85700,80968.0,82744.5,200.0,271.42857142857144,0,0.0,10000000,0,-0.00121212121212122,0.9728453364816995,10000000.0,1.0
2023-12-26 09:45:00,82400.0,82600.0,82400.0,82600.0,45700,81004.0,82730.0,200.0,257.14285714285717,0,0.0,10000000,0,0.0024271844660195274,0.9752066115702474,10000000.0,1.0
2023-12-26 10:00:00,82500.0,82600.0,82500.0,82500.0,58900,81040.0,82713.5,100.0,250.0,0,0.0,10000000,0,-0.001210653753026647,0.9740259740259735,10000000.0,1.0
2023-12-26 10:15:00,82500.0,82500.0,82400.0,82400.0,33800,81074.0,82699.5,100.0,242.85714285714286,0,0.0,10000000,0,-0.00121212121212122,0.9728453364816996,10000000.0,1.0
2023-12-26 10:30:00,82500.0,82500.0,82300.0,82400.0,25200,81106.0,82685.0,200.0,242.85714285714286,0,0.0,10000000,0,0.0,0.9728453364816996,10000000.0,1.0
2023-12-26 10:45:00,82300.0,82500.0,82300.0,82400.0,19100,81140.0,82671.0,200.0,235.71428571428572,0,0.0,10000000,0,0.0,0.9728453364816996,10000000.0,1.0
2023-12-26 11:00:00,82400.0,82500.0,82400.0,82400.0,28600,81178.0,82657.0,100.0,228.57142857142858,0,0.0,10000000,0,0.0,0.9728453364816996,10000000.0,1.0
2023-12-26 11:15:00,82400.0,82400.0,82300.0,82400.0,17800,81216.0,82642.5,100.0,221.42857142857142,0,0.0,10000000,0,0.0,0.9728453364816996,10000000.0,1.0
2023-12-26 13:00:00,82300.0,82400.0,82200.0,82200.0,57800,81252.0,82628.0,200.0,221.42857142857142,0,0.0,10000000,0,-0.0024271844660194164,0.9704840613931518,10000000.0,1.0
2023-12-26 13:15:00,82300.0,82500.0,82200.0,82500.0,176200,81294.0,82614.5,300.0,214.28571428571428,0,0.0,10000000,0,0.0036496350364962904,0.9740259740259735,10000000.0,1.0
2023-12-26 13:30:00,82500.0,82500.0,82300.0,82500.0,45800,81336.0,82601.5,200.0,214.28571428571428,0,0.0,10000000,0,0.0,0.9740259740259735,10000000.0,1.0
2023-12-26 13:45:00,82500.0,82500.0,82300.0,82400.0,61300,81374.0,82587.5,200.0,200.0,0,0.0,10000000,0,-0.00121212121212122,0.9728453364816996,10000000.0,1.0
2023-12-26 14:00:00,82400.0,82500.0,82300.0,82400.0,51900,81412.0,82574.0,200.0,214.28571428571428,0,0.0,10000000,0,0.0,0.9728453364816996,10000000.0,1.0
2023-12-26 14:15:00,82400.0,82700.0,82400.0,82600.0,164400,81454.0,82561.5,300.0,185.71428571428572,0,0.0,10000000,0,0.0024271844660195274,0.9752066115702475,10000000.0,1.0
2023-12-26 14:45:00,82800.0,82800.0,82800.0,82800.0,78500,81500.0,82549.5,0.0,171.42857142857142,0,0.0,10000000,0,0.002421307506053294,0.9775678866587953,10000000.0,1.0
2023-12-27 09:15:00,82900.0,82900.0,82600.0,82700.0,26300,81536.0,82537.5,300.0,178.57142857142858,0,0.0,10000000,0,-0.0012077294685990392,0.9763872491145215,10000000.0,1.0
2023-12-27 09:30:00,82600.0,83000.0,82500.0,83000.0,72800,81578.0,82527.0,500.0,207.14285714285714,0,0.0,10000000,0,0.0036275695284160303,0.9799291617473432,10000000.0,1.0
2023-12-27 09:45:00,82900.0,82900.0,82800.0,82800.0,41800,81620.0,82515.0,100.0,207.14285714285714,0,0.0,10000000,0,-0.002409638554216831,0.9775678866587955,10000000.0,1.0
2023-12-27 10:00:00,82800.0,82900.0,82700.0,82800.0,19600,81664.0,82503.5,200.0,207.14285714285714,0,0.0,10000000,0,0.0,0.9775678866587955,10000000.0,1.0
2023-12-27 10:15:00,82900.0,83000.0,82800.0,83000.0,64500,81710.0,82492.0,200.0,207.14285714285714,0,0.0,10000000,0,0.0024154589371980784,0.9799291617473432,10000000.0,1.0
2023-12-27 10:30:00,83000.0,83100.0,82900.0,83000.0,56000,81758.0,82482.0,200.0,214.28571428571428,0,0.0,10000000,0,0.0,0.9799291617473432,10000000.0,1.0
2023-12-27 10:45:00,83100.0,83100.0,83000.0,83000.0,42600,81806.0,82473.0,100.0,214.28571428571428,0,0.0,10000000,0,0.0,0.9799291617473432,10000000.0,1.0
2023-12-27 11:00:00,83000.0,83100.0,83000.0,83000.0,26200,81854.0,82465.0,100.0,207.14285714285714,0,0.0,10000000,0,0.0,0.9799291617473432,10000000.0,1.0
2023-12-27 11:15:00,83000.0,83100.0,82900.0,83000.0,28500,81902.0,82456.5,200.0,200.0,0,0.0,10000000,0,0.0,0.9799291617473432,10000000.0,1.0
2023-12-27 13:00:00,82900.0,83000.0,82800.0,82900.0,63100,81950.0,82448.5,200.0,200.0,0,0.0,10000000,0,-0.001204819277108471,0.9787485242030692,10000000.0,1.0
2023-12-27 13:15:00,82900.0,83000.0,82800.0,83000.0,95300,82000.0,82440.5,200.0,200.0,0,0.0,10000000,0,0.0012062726176116367,0.9799291617473432,10000000.0,1.0
2023-12-27 13:30:00,83000.0,83000.0,82800.0,82900.0,52900,82042.0,82432.5,200.0,200.0,0,0.0,10000000,0,-0.001204819277108471,0.9787485242030692,10000000.0,1.0
2023-12-27 13:45:00,82900.0,83200.0,82800.0,83200.0,151500,82090.0,82426.5,400.0,207.14285714285714,0,0.0,10000000,0,0.003618817852834688,0.9822904368358909,10000000.0,1.0
2023-12-27 14:00:00,83100.0,83200.0,83000.0,83000.0,127500,82132.0,82420.0,200.0,221.42857142857142,0,0.0,10000000,0,-0.0024038461538461453,0.9799291617473431,10000000.0,1.0
2023-12-27 14:15:00,83100.0,83100.0,82900.0,82900.0,65000,82178.0,82412.5,200.0,214.28571428571428,0,0.0,10000000,0,-0.001204819277108471,0.9787485242030691,10000000.0,1.0
2023-12-27 14:45:00,82700.0,82700.0,82700.0,82700.0,76800,82220.0,82404.5,0.0,178.57142857142858,0,0.0,10000000,0,-0.0024125452352231624,0.9763872491145213,10000000.0,1.0
2023-12-28 09:15:00,82700.0,82800.0,82700.0,82700.0,16500,82254.0,82397.0,100.0,178.57142857142858,0,0.0,10000000,0,0.0,0.9763872491145213,10000000.0,1.0
2023-12-28 09:30:00,82700.0,82800.0,82500.0,82500.0,42500,82286.0,82388.5,300.0,185.71428571428572,0,0.0,10000000,0,-0.00241837968561065,0.9740259740259736,10000000.0,1.0
2023-12-28 09:45:00,82500.0,82500.0,82400.0,82400.0,58900,82316.0,82379.5,100.0,178.57142857142858,0,0.0,10000000,0,-0.00121212121212122,0.9728453364816997,10000000.0,1.0
2023-12-28 10:00:00,82400.0,82600.0,82400.0,82500.0,29200,82332.0,82370.0,200.0,178.57142857142858,0,0.0,10000000,0,0.0012135922330096527,0.9740259740259736,10000000.0,1.0
2023-12-28 10:15:00,82500.0,82600.0,82500.0,82500.0,22100,82350.0,82361.5,100.0,178.57142857142858,0,0.0,10000000,0,0.0,0.9740259740259736,10000000.0,1.0
2023-12-28 10:30:00,82500.0,82600.0,82500.0,82500.0,28500,82370.0,82353.0,100.0,178.57142857142858,1,0.0,10000000,0,0.0,0.9740259740259736,10000000.0,1.0
2023-12-28 10:45:00,82500.0,82600.0,82500.0,82500.0,26000,82394.0,82343.5,100.0,171.42857142857142,1,1.0,9175000,10,0.0,0.9740259740259736,10000000.0,1.0
2023-12-28 11:00:00,82500.0,82600.0,82500.0,82500.0,15300,82416.0,82334.0,100.0,164.28571428571428,1,1.0,8350000,20,0.0,0.9740259740259736,10000000.0,1.0
2023-12-28 11:15:00,82500.0,82800.0,82500.0,82800.0,42300,82446.0,82327.5,300.0,171.42857142857142,1,1.0,7522000,30,0.0036363636363636598,0.9775678866587953,10006000.0,1.0006
2023-12-28 13:00:00,82800.0,83000.0,82700.0,82700.0,68000,82474.0,82320.5,300.0,178.57142857142858,1,1.0,6695000,40,-0.0012077294685990392,0.9763872491145215,10003000.0,1.0003
2023-12-28 13:15:00,82700.0,83000.0,82700.0,82900.0,97700,82506.0,82314.5,300.0,171.42857142857142,1,1.0,5866000,50,0.002418379685610539,0.9787485242030691,10011000.0,1.0011
2023-12-28 13:30:00,82900.0,83000.0,82800.0,82800.0,83200,82534.0,82308.0,200.0,171.42857142857142,1,1.0,5038000,60,-0.0012062726176115257,0.9775678866587952,10006000.0,1.0006
2023-12-28 13:45:00,82800.0,83100.0,82800.0,83000.0,245100,82564.0,82302.5,300.0,178.57142857142858,1,1.0,4208000,70,0.0024154589371980784,0.979929161747343,10018000.0,1.0018
2023-12-28 14:00:00,82900.0,83000.0,82900.0,82900.0,114800,82594.0,82297.0,100.0,185.71428571428572,1,1.0,3379000,80,-0.001204819277108471,0.978748524203069,10011000.0,1.0011
2023-12-28 14:15:00,82900.0,83000.0,82800.0,82900.0,76800,82626.0,82291.5,200.0,192.85714285714286,1,1.0,2550000,90,0.0,0.978748524203069,10011000.0,1.0011
2023-12-28 14:45:00,82800.0,82800.0,82800.0,82800.0,0,82652.0,82285.5,0.0,171.42857142857142,1,1.0,1722000,100,-0.0012062726176115257,0.9775678866587951,10002000.0,1.0002
2023-12-29 09:15:00,83500.0,83500.0,83000.0,83400.0,121000,82688.0,82281.5,500.0,200.0,1,1.0,888000,110,0.007246376811594235,0.9846517119244386,10062000.0,1.0062
2023-12-29 09:30:00,83400.0,83700.0,83300.0,83600.0,104000,82724.0,82279.0,400.0,214.28571428571428,1,1.0,52000,120,0.0023980815347721673,0.9870129870129863,10084000.0,1.0084
2023-12-29 09:45:00,83700.0,83900.0,83600.0,83800.0,94900,82750.0,82277.0,300.0,228.57142857142858,1,1.0,52000,120,0.0023923444976077235,0.9893742621015342,10108000.0,1.0108
2023-12-29 10:00:00,83800.0,83900.0,83600.0,83600.0,89600,82774.0,82273.5,300.0,242.85714285714286,1,1.0,52000,120,-0.0023866348448687846,0.9870129870129863,10084000.0,1.0084
2023-12-29 10:15:00,83600.0,83800.0,83500.0,83600.0,82400,82794.0,82270.0,300.0,257.14285714285717,1,1.0,52000,120,0.0,0.9870129870129863,10084000.0,1.0084
2023-12-29 10:30:00,83600.0,83800.0,83400.0,83600.0,151600,82816.0,82267.0,400.0,278.57142857142856,1,1.0,52000,120,0.0,0.9870129870129863,10084000.0,1.0084
2023-12-29 10:45:00,83500.0,83800.0,83400.0,83600.0,66300,82840.0,82263.5,400.0,285.7142857142857,1,1.0,52000,120,0.0,0.9870129870129863,10084000.0,1.0084
2023-12-29 11:00:00,83800.0,83800.0,83500.0,83800.0,100000,82868.0,82261.0,300.0,285.7142857142857,1,1.0,52000,120,0.0023923444976077235,0.9893742621015342,10108000.0,1.0108
2023-12-29 11:15:00,83600.0,83800.0,83500.0,83500.0,51300,82890.0,82257.0,300.0,285.7142857142857,1,1.0,52000,120,-0.0035799522673031214,0.9858323494687125,10072000.0,1.0072
2023-12-29 13:00:00,83700.0,83800.0,83600.0,83600.0,50300,82914.0,82253.5,200.0,285.7142857142857,1,1.0,52000,120,0.0011976047904191933,0.9870129870129863,10084000.0,1.0084
2023-12-29 13:15:00,83600.0,83700.0,83400.0,83600.0,132800,82938.0,82250.5,300.0,285.7142857142857,1,1.0,52000,120,0.0,0.9870129870129863,10084000.0,1.0084
2023-12-29 13:30:00,83600.0,83600.0,83400.0,83500.0,254326,82964.0,82246.5,200.0,292.85714285714283,1,1.0,52000,120,-0.0011961722488038617,0.9858323494687125,10072000.0,1.0072
2023-12-29 13:45:00,83400.0,83400.0,83100.0,83400.0,184200,82982.0,82242.5,300.0,300.0,1,1.0,52000,120,-0.0011976047904191933,0.9846517119244386,10060000.0,1.006
2023-12-29 14:00:00,83400.0,83700.0,83200.0,83400.0,99100,83000.0,82238.5,500.0,335.7142857142857,1,1.0,52000,120,0.0,0.9846517119244386,10060000.0,1.006
2023-12-29 14:15:00,83500.0,83600.0,83200.0,83300.0,89500,83018.0,82234.5,400.0,328.57142857142856,1,1.0,52000,120,-0.0011990407673860837,0.9834710743801647,10048000.0,1.0048
2023-12-29 14:45:00,80300.0,80300.0,80300.0,80300.0,223000,82976.0,82215.0,0.0,300.0,1,1.0,52000,120,-0.03601440576230497,0.9480519480519474,9688000.0,0.9688
2024-01-02 09:15:00,82900.0,82900.0,82500.0,82700.0,96300,82978.0,82207.5,400.0,307.14285714285717,1,1.0,52000,120,0.0298879202988791,0.976387249114521,9976000.0,0.9976
2024-01-02 09:30:00,82700.0,82900.0,82700.0,82900.0,49300,82980.0,82201.0,200.0,300.0,1,1.0,52000,120,0.002418379685610539,0.9787485242030687,10000000.0,1.0
2024-01-02 09:45:00,82800.0,83000.0,82800.0,83000.0,134000,82986.0,82195.5,200.0,292.85714285714283,1,1.0,52000,120,0.0012062726176116367,0.9799291617473427,10012000.0,1.0012
2024-01-02 10:00:00,82900.0,83000.0,82800.0,82800.0,60600,82982.0,82189.0,200.0,278.57142857142856,1,1.0,52000,120,-0.002409638554216831,0.9775678866587949,9988000.0,0.9988
2024-01-02 10:15:00,82800.0,83000.0,82800.0,82900.0,68000,82984.0,82184.0,200.0,264.2857142857143,1,1.0,52000,120,0.0012077294685990392,0.9787485242030688,10000000.0,1.0
2024-01-02 10:30:00,82900.0,83000.0,82800.0,83000.0,130100,82988.0,82180.5,200.0,257.14285714285717,1,1.0,52000,120,0.0012062726176116367,0.9799291617473428,10012000.0,1.0012
2024-01-02 10:45:00,83000.0,83000.0,82600.0,82700.0,141900,82982.0,82174.0,400.0,264.2857142857143,1,1.0,52000,120,-0.0036144578313253017,0.976387249114521,9976000.0,0.9976
2024-01-02 11:00:00,82700.0,82800.0,82500.0,82500.0,119100,82972.0,82166.5,300.0,271.42857142857144,1,1.0,52000,120,-0.00241837968561065,0.9740259740259732,9952000.0,0.9952
2024-01-02 11:15:00,82500.0,82700.0,82200.0,82600.0,87600,82964.0,82159.5,500.0,285.7142857142857,1,1.0,52000,120,0.00121212121212122,0.9752066115702471,9964000.0,0.9964
2024-01-02 13:00:00,82600.0,82900.0,82600.0,82900.0,87200,82962.0,82154.0,300.0,292.85714285714283,1,1.0,52000,120,0.00363196125907983,0.9787485242030688,10000000.0,1.0
2024-01-02 13:15:00,82900.0,83000.0,82800.0,82900.0,114200,82960.0,82148.0,200.0,285.7142857142857,1,1.0,52000,120,0.0,0.9787485242030688,10000000.0,1.0
2024-01-02 13:30:00,82900.0,83000.0,82900.0,83000.0,106700,82962.0,82142.0,100.0,257.14285714285717,1,1.0,52000,120,0.0012062726176116367,0.9799291617473428,10012000.0,1.0012
2024-01-02 13:45:00,82900.0,83300.0,82900.0,83200.0,200000,82966.0,82137.0,400.0,257.14285714285717,1,1.0,52000,120,0.002409638554216942,0.9822904368358907,10036000.0,1.0036
2024-01-02 14:00:00,83200.0,83300.0,83200.0,83300.0,122100,82974.0,82132.0,100.0,264.2857142857143,1,1.0,52000,120,0.0012019230769231282,0.9834710743801647,10048000.0,1.0048
2024-01-02 14:15:00,83200.0,83600.0,83200.0,83400.0,276000,82978.0,82127.0,400.0,264.2857142857143,1,1.0,52000,120,0.0012004801920768582,0.9846517119244386,10060000.0,1.006
2024-01-02 14:45:00,83500.0,83500.0,83500.0,83500.0,72099,82988.0,82123.0,0.0,250.0,1,1.0,52000,120,0.0011990407673860837,0.9858323494687125,10072000.0,1.0072
2024-01-03 09:15:00,83500.0,83500.0,82800.0,83200.0,35400,82994.0,82117.5,700.0,285.7142857142857,1,1.0,52000,120,-0.003592814371257469,0.9822904368358908,10036000.0,1.0036
2024-01-03 09:30:00,83200.0,83600.0,83200.0,83500.0,56400,83010.0,82113.5,400.0,300.0,1,1.0,52000,120,0.0036057692307691624,0.9858323494687125,10072000.0,1.0072
2024-01-03 09:45:00,83500.0,83600.0,83300.0,83300.0,48300,83022.0,82108.5,300.0,307.14285714285717,1,1.0,52000,120,-0.0023952095808382756,0.9834710743801647,10048000.0,1.0048
2024-01-03 10:00:00,83400.0,83600.0,83400.0,83500.0,40700,83042.0,82105.5,200.0,307.14285714285717,1,1.0,52000,120,0.0024009603841537164,0.9858323494687126,10072000.0,1.0072
2024-01-03 10:15:00,83500.0,83600.0,83500.0,83500.0,20700,83064.0,82101.0,100.0,285.7142857142857,1,1.0,52000,120,0.0,0.9858323494687126,10072000.0,1.0072
2024-01-03 10:30:00,83500.0,83600.0,83500.0,83500.0,62700,83084.0,82096.5,100.0,271.42857142857144,1,1.0,52000,120,0.0,0.9858323494687126,10072000.0,1.0072
2024-01-03 10:45:00,83500.0,83700.0,83500.0,83600.0,41100,83106.0,82094.5,200.0,250.0,1,1.0,52000,120,0.0011976047904191933,0.9870129870129865,10084000.0,1.0084
2024-01-03 11:00:00,83700.0,83800.0,83600.0,83700.0,64900,83130.0,82092.0,200.0,242.85714285714286,1,1.0,52000,120,0.0011961722488038617,0.9881936245572603,10096000.0,1.0096
2024-01-03 11:15:00,83700.0,84000.0,83700.0,83900.0,140500,83158.0,82091.0,300.0,250.0,1,1.0,52000,120,0.002389486260454099,0.9905548996458082,10120000.0,1.012
2024-01-03 13:00:00,83900.0,84000.0,83600.0,83800.0,109400,83184.0,82089.5,400.0,271.42857142857144,1,1.0,52000,120,-0.0011918951132300348,0.9893742621015343,10108000.0,1.0108
2024-01-03 13:15:00,83700.0,84000.0,83700.0,83900.0,149600,83206.0,82088.5,300.0,264.2857142857143,1,1.0,52000,120,0.0011933174224343368,0.9905548996458082,10120000.0,1.012
2024-01-03 13:30:00,83900.0,83900.0,83800.0,83900.0,131800,83230.0,82087.5,100.0,264.2857142857143,1,1.0,52000,120,0.0,0.9905548996458082,10120000.0,1.012
2024-01-03 13:45:00,83800.0,83900.0,83800.0,83900.0,92000,83250.0,82086.5,100.0,242.85714285714286,1,1.0,52000,120,0.0,0.9905548996458082,10120000.0,1.012
2024-01-03 14:00:00,83900.0,84100.0,83800.0,84000.0,158000,83274.0,82086.5,300.0,264.2857142857143,1,1.0,52000,120,0.0011918951132301459,0.9917355371900822,10132000.0,1.0132
2024-01-03 14:15:00,84000.0,84200.0,84000.0,84200.0,134700,83298.0,82087.5,200.0,228.57142857142858,1,1.0,52000,120,0.0023809523809523725,0.99409681227863,10156000.0,1.0156
2024-01-03 14:45:00,84500.0,84500.0,84500.0,84500.0,226100,83330.0,82091.0,0.0,200.0,1,1.0,52000,120,0.0035629453681709222,0.9976387249114517,10192000.0,1.0192
2024-01-04 09:15:00,84500.0,84700.0,84000.0,84100.0,65400,83354.0,82091.5,700.0,228.57142857142858,1,1.0,52000,120,-0.004733727810650845,0.9929161747343561,10144000.0,1.0144
2024-01-04 09:30:00,84100.0,84300.0,84100.0,84200.0,55800,83382.0,82093.0,200.0,228.57142857142858,1,1.0,52000,120,0.0011890606420927874,0.9940968122786301,10156000.0,1.0156
2024-01-04 09:45:00,84300.0,84300.0,84100.0,84100.0,69300,83396.0,82094.5,200.0,235.71428571428572,1,1.0,52000,120,-0.001187648456057011,0.9929161747343562,10144000.0,1.0144
2024-01-04 10:00:00,84200.0,84400.0,84100.0,84300.0,44000,83410.0,82096.5,300.0,250.0,1,1.0,52000,120,0.0023781212841855748,0.9952774498229041,10168000.0,1.0168
2024-01-04 10:15:00,84300.0,84600.0,84300.0,84500.0,74300,83424.0,82099.5,300.0,257.14285714285717,1,1.0,52000,120,0.0023724792408066353,0.9976387249114519,10192000.0,1.0192
2024-01-04 10:30:00,84500.0,84500.0,84400.0,84500.0,103800,83442.0,82111.0,100.0,250.0,1,1.0,52000,120,0.0,0.9976387249114519,10192000.0,1.0192
2024-01-04 10:45:00,84500.0,84600.0,84400.0,84500.0,98000,83460.0,82121.0,200.0,242.85714285714286,1,1.0,52000,120,0.0,0.9976387249114519,10192000.0,1.0192
2024-01-04 11:00:00,84500.0,84900.0,84500.0,84800.0,164500,83484.0,82131.5,400.0,242.85714285714286,1,1.0,52000,120,0.0035502958579882726,1.0011806375442738,10228000.0,1.0228
2024-01-04 11:15:00,84800.0,85500.0,84800.0,85400.0,245800,83520.0,82145.0,700.0,271.42857142857144,1,1.0,52000,120,0.007075471698113178,1.008264462809917,10300000.0,1.03
2024-01-04 13:00:00,85400.0,85500.0,85300.0,85400.0,153500,83552.0,82159.0,200.0,278.57142857142856,1,1.0,52000,120,0.0,1.008264462809917,10300000.0,1.03
2024-01-04 13:15:00,85400.0,85700.0,85300.0,85600.0,362500,83594.0,82175.0,400.0,300.0,1,1.0,52000,120,0.0023419203747072626,1.0106257378984649,10324000.0,1.0324
2024-01-04 13:30:00,85700.0,86000.0,85600.0,85900.0,325300,83640.0,82192.5,400.0,307.14285714285717,1,1.0,52000,120,0.003504672897196359,1.0141676505312867,10360000.0,1.036
2024-01-04 13:45:00,85900.0,86100.0,85900.0,86000.0,387200,83688.0,82212.5,200.0,307.14285714285717,1,1.0,52000,120,0.0011641443538998875,1.0153482880755607,10372000.0,1.0372
2024-01-04 14:00:00,86000.0,86200.0,85800.0,85900.0,277000,83736.0,82231.5,400.0,335.7142857142857,1,1.0,52000,120,-0.0011627906976744429,1.0141676505312867,10360000.0,1.036
2024-01-04 14:15:00,85900.0,85900.0,85700.0,85700.0,175400,83782.0,82251.5,200.0,300.0,1,1.0,52000,120,-0.002328288707799775,1.0118063754427389,10336000.0,1.0336
2024-01-04 14:30:00,85700.0,85700.0,85700.0,85700.0,700,83828.0,82271.0,0.0,285.7142857142857,1,1.0,52000,120,0.0,1.0118063754427389,10336000.0,1.0336
2024-01-04 14:45:00,85900.0,85900.0,85900.0,85900.0,122500,83880.0,82292.5,0.0,271.42857142857144,1,1.0,52000,120,0.002333722287047868,1.0141676505312867,10360000.0,1.036
2024-01-05 09:15:00,85900.0,86000.0,85800.0,85900.0,37400,83992.0,82313.0,200.0,264.2857142857143,1,1.0,52000,120,0.0,1.0141676505312867,10360000.0,1.036
2024-01-05 09:30:00,85900.0,85900.0,85700.0,85900.0,75600,84056.0,82333.5,200.0,257.14285714285717,1,1.0,52000,120,0.0,1.0141676505312867,10360000.0,1.036
2024-01-05 09:45:00,85700.0,85900.0,85700.0,85900.0,52800,84116.0,82353.5,200.0,264.2857142857143,1,1.0,52000,120,0.0,1.0141676505312867,10360000.0,1.036
2024-01-05 10:00:00,85900.0,86000.0,85700.0,86000.0,70300,84176.0,82375.0,300.0,271.42857142857144,1,1.0,52000,120,0.0011641443538998875,1.0153482880755607,10372000.0,1.0372
2024-01-05 10:15:00,85900.0,86000.0,85900.0,86000.0,58300,84240.0,82397.5,100.0,250.0,1,1.0,52000,120,0.0,1.0153482880755607,10372000.0,1.0372
2024-01-05 10:30:00,86000.0,86000.0,85800.0,86000.0,78900,84302.0,82421.5,200.0,214.28571428571428,1,1.0,52000,120,0.0,1.0153482880755607,10372000.0,1.0372
2024-01-05 10:45:00,86000.0,86000.0,85700.0,86000.0,66800,84362.0,82445.0,300.0,221.42857142857142,1,1.0,52000,120,0.0,1.0153482880755607,10372000.0,1.0372
2024-01-05 11:00:00,86000.0,86000.0,85800.0,85800.0,50700,84424.0,82468.0,200.0,207.14285714285714,1,1.0,52000,120,-0.0023255813953488857,1.0129870129870129,10348000.0,1.0348
2024-01-05 11:15:00,85900.0,86000.0,85800.0,86000.0,58300,84494.0,82491.5,200.0,192.85714285714286,1,1.0,52000,120,0.002331002331002363,1.0153482880755607,10372000.0,1.0372
2024-01-05 13:00:00,85900.0,86000.0,85800.0,85900.0,46500,84560.0,82515.0,200.0,192.85714285714286,1,1.0,52000,120,-0.0011627906976744429,1.0141676505312867,10360000.0,1.036
2024-01-05 13:15:00,85900.0,86000.0,85800.0,86000.0,73300,84622.0,82539.0,200.0,178.57142857142858,1,1.0,52000,120,0.0011641443538998875,1.0153482880755607,10372000.0,1.0372
2024-01-05 13:30:00,86000.0,86000.0,85900.0,86000.0,116100,84684.0,82564.0,100.0,171.42857142857142,1,1.0,52000,120,0.0,1.0153482880755607,10372000.0,1.0372
2024-01-05 13:45:00,86000.0,86000.0,85800.0,85900.0,74300,84742.0,82588.5,200.0,185.71428571428572,1,1.0,52000,120,-0.0011627906976744429,1.0141676505312867,10360000.0,1.036
2024-01-05 14:00:00,85900.0,85900.0,85800.0,85900.0,64500,84796.0,82612.5,100.0,192.85714285714286,1,1.0,52000,120,0.0,1.0141676505312867,10360000.0,1.036
2024-01-05 14:15:00,85800.0,86100.0,85800.0,86000.0,184100,84850.0,82638.5,300.0,200.0,1,1.0,52000,120,0.0011641443538998875,1.0153482880755607,10372000.0,1.0372
2024-01-05 14:45:00,86200.0,86200.0,86200.0,86200.0,212700,84906.0,82666.0,0.0,185.71428571428572,1,1.0,52000,120,0.0023255813953488857,1.0177095631641084,10396000.0,1.0396
2024-01-08 09:15:00,86300.0,86600.0,86300.0,86500.0,70600,84966.0,82696.5,300.0,192.85714285714286,1,1.0,52000,120,0.0034802784222738303,1.0212514757969302,10432000.0,1.0432
2024-01-08 09:30:00,86500.0,86600.0,86400.0,86600.0,93200,85034.0,82726.5,200.0,185.71428571428572,1,1.0,52000,120,0.0011560693641619046,1.0224321133412042,10444000.0,1.0444
2024-01-08 09:45:00,86600.0,86600.0,86400.0,86500.0,51000,85094.0,82757.0,200.0,192.85714285714286,1,1.0,52000,120,-0.0011547344110854896,1.0212514757969302,10432000.0,1.0432
2024-01-08 10:00:00,86500.0,86600.0,86400.0,86500.0,131300,85158.0,82786.5,200.0,192.85714285714286,1,1.0,52000,120,0.0,1.0212514757969302,10432000.0,1.0432
2024-01-08 10:15:00,86600.0,86700.0,86600.0,86600.0,68000,85220.0,82814.0,100.0,178.57142857142858,1,1.0,52000,120,0.0011560693641619046,1.0224321133412042,10444000.0,1.0444
2024-01-08 10:30:00,86700.0,86700.0,86600.0,86700.0,34300,85284.0,82841.5,100.0,171.42857142857142,1,1.0,52000,120,0.0011547344110853786,1.023612750885478,10456000.0,1.0456
2024-01-08 10:45:00,86700.0,86700.0,86500.0,86500.0,95500,85344.0,82869.5,200.0,171.42857142857142,1,1.0,52000,120,-0.0023068050749711633,1.0212514757969302,10432000.0,1.0432
2024-01-08 11:00:00,86500.0,86600.0,86400.0,86400.0,47000,85400.0,82896.5,200.0,171.42857142857142,1,1.0,52000,120,-0.0011560693641619046,1.0200708382526562,10420000.0,1.042
2024-01-08 11:15:00,86400.0,86400.0,86300.0,86400.0,36800,85454.0,82924.5,100.0,164.28571428571428,1,1.0,52000,120,0.0,1.0200708382526562,10420000.0,1.042
2024-01-08 13:00:00,86400.0,86500.0,86300.0,86400.0,148300,85504.0,82952.0,200.0,171.42857142857142,1,1.0,52000,120,0.0,1.0200708382526562,10420000.0,1.042
2024-01-08 13:15:00,86500.0,86700.0,86300.0,86700.0,140700,85562.0,82981.5,400.0,185.71428571428572,1,1.0,52000,120,0.003472222222222321,1.023612750885478,10456000.0,1.0456
2024-01-08 13:30:00,86600.0,86700.0,86400.0,86700.0,142800,85618.0,83011.0,300.0,200.0,1,1.0,52000,120,0.0,1.023612750885478,10456000.0,1.0456
2024-01-08 13:45:00,86400.0,86800.0,86400.0,86800.0,131000,85676.0,83041.5,400.0,207.14285714285714,1,1.0,52000,120,0.0011534025374855261,1.0247933884297518,10468000.0,1.0468
2024-01-08 14:00:00,86800.0,86800.0,86300.0,86400.0,118800,85726.0,83070.0,500.0,242.85714285714286,1,1.0,52000,120,-0.004608294930875556,1.0200708382526562,10420000.0,1.042
2024-01-08 14:15:00,86600.0,86800.0,86300.0,86400.0,178500,85774.0,83099.0,500.0,257.14285714285717,1,1.0,52000,120,0.0,1.0200708382526562,10420000.0,1.042
2024-01-08 14:45:00,86800.0,86800.0,86800.0,86800.0,0,85826.0,83130.0,0.0,242.85714285714286,1,1.0,52000,120,0.004629629629629539,1.0247933884297518,10468000.0,1.0468
2024-01-09 09:15:00,86800.0,87000.0,86800.0,86900.0,107900,85874.0,83161.5,200.0,242.85714285714286,1,1.0,52000,120,0.0011520737327188613,1.0259740259740255,10480000.0,1.048
2024-01-09 09:30:00,86900.0,87000.0,86800.0,87000.0,142900,85932.0,83193.5,200.0,242.85714285714286,1,1.0,52000,120,0.0011507479861909697,1.0271546635182993,10492000.0,1.0492
2024-01-09 09:45:00,87000.0,87500.0,87000.0,87300.0,203600,85994.0,83226.0,500.0,271.42857142857144,1,1.0,52000,120,0.0034482758620688614,1.0306965761511209,10528000.0,1.0528
2024-01-09 10:00:00,87300.0,87300.0,87100.0,87200.0,33300,86056.0,83257.0,200.0,278.57142857142856,1,1.0,52000,120,-0.001145475372279492,1.0295159386068469,10516000.0,1.0516
2024-01-09 10:15:00,87200.0,87300.0,87200.0,87300.0,101500,86116.0,83289.5,100.0,271.42857142857144,1,1.0,52000,120,0.0011467889908256534,1.0306965761511206,10528000.0,1.0528
2024-01-09 10:30:00,87400.0,87500.0,87300.0,87300.0,60900,86172.0,83320.5,200.0,271.42857142857144,1,1.0,52000,120,0.0,1.0306965761511206,10528000.0,1.0528
2024-01-09 10:45:00,87400.0,87400.0,87300.0,87400.0,56300,86230.0,83353.5,100.0,271.42857142857144,1,1.0,52000,120,0.001145475372279492,1.0318772136953946,10540000.0,1.054
2024-01-09 11:00:00,87300.0,87400.0,87200.0,87300.0,90500,86286.0,83386.0,200.0,271.42857142857144,1,1.0,52000,120,-0.0011441647597254523,1.0306965761511206,10528000.0,1.0528
2024-01-09 11:15:00,87300.0,87300.0,87200.0,87200.0,64000,86334.0,83418.5,100.0,250.0,1,1.0,52000,120,-0.001145475372279492,1.0295159386068466,10516000.0,1.0516
2024-01-09 13:00:00,87200.0,87400.0,87200.0,87400.0,113000,86374.0,83452.0,200.0,242.85714285714286,1,1.0,52000,120,0.002293577981651307,1.0318772136953944,10540000.0,1.054
2024-01-09 13:15:00,87300.0,87500.0,87300.0,87400.0,147200,86414.0,83485.0,200.0,228.57142857142858,1,1.0,52000,120,0.0,1.0318772136953944,10540000.0,1.054
2024-01-09 13:30:00,87400.0,87500.0,87400.0,87400.0,190100,86450.0,83518.5,100.0,200.0,1,1.0,52000,120,0.0,1.0318772136953944,10540000.0,1.054
2024-01-09 13:45:00,87500.0,87600.0,87400.0,87500.0,196300,86482.0,83553.5,200.0,178.57142857142858,1,1.0,52000,120,0.0011441647597254523,1.0330578512396684,10552000.0,1.0552
2024-01-09 14:00:00,87600.0,87800.0,87500.0,87800.0,219600,86518.0,83590.0,300.0,200.0,1,1.0,52000,120,0.0034285714285713365,1.03659976387249,10588000.0,1.0588
2024-01-09 14:15:00,87700.0,87900.0,87600.0,87800.0,243900,86556.0,83627.0,300.0,207.14285714285714,1,1.0,52000,120,0.0,1.03659976387249,10588000.0,1.0588
2024-01-09 14:45:00,87800.0,87800.0,87800.0,87800.0,0,86598.0,83664.0,0.0,192.85714285714286,1,1.0,52000,120,0.0,1.03659976387249,10588000.0,1.0588
2024-01-10 09:15:00,87800.0,88000.0,87500.0,87500.0,31500,86634.0,83699.5,500.0,192.85714285714286,1,1.0,52000,120,-0.003416856492027387,1.0330578512396682,10552000.0,1.0552
2024-01-10 09:30:00,87500.0,87500.0,87200.0,87500.0,45300,86666.0,83734.5,300.0,200.0,1,1.0,52000,120,0.0,1.0330578512396682,10552000.0,1.0552
2024-01-10 09:45:00,87300.0,87700.0,87300.0,87500.0,68300,86698.0,83769.5,400.0,221.42857142857142,1,1.0,52000,120,0.0,1.0330578512396682,10552000.0,1.0552
2024-01-10 10:00:00,87500.0,87900.0,87400.0,87700.0,65400,86734.0,83805.5,500.0,242.85714285714286,1,1.0,52000,120,0.0022857142857142243,1.035419126328216,10576000.0,1.0576
2024-01-10 10:15:00,87700.0,88700.0,87700.0,88700.0,203500,86790.0,83846.5,1000.0,307.14285714285717,1,1.0,52000,120,0.011402508551881407,1.047225501770955,10696000.0,1.0696
2024-01-10 10:30:00,88700.0,89000.0,88500.0,88600.0,167000,86842.0,83885.0,500.0,328.57142857142856,1,1.0,52000,120,-0.0011273957158962622,1.046044864226681,10684000.0,1.0684
2024-01-10 10:45:00,88600.0,88900.0,88600.0,88600.0,57500,86894.0,83923.5,300.0,342.85714285714283,1,1.0,52000,120,0.0,1.046044864226681,10684000.0,1.0684
2024-01-10 11:00:00,88600.0,88800.0,88600.0,88800.0,55200,86950.0,83964.0,200.0,342.85714285714283,1,1.0,52000,120,0.0022573363431150906,1.0484061393152289,10708000.0,1.0708
2024-01-10 11:15:00,88900.0,89000.0,88700.0,88800.0,118100,87006.0,84005.0,300.0,350.0,1,1.0,52000,120,0.0,1.0484061393152289,10708000.0,1.0708
2024-01-10 13:00:00,88800.0,89000.0,88500.0,88900.0,191000,87068.0,84046.0,500.0,378.57142857142856,1,1.0,52000,120,0.0011261261261261701,1.0495867768595029,10720000.0,1.072
2024-01-10 13:15:00,88900.0,89000.0,88700.0,88800.0,197600,87124.0,84087.0,300.0,385.7142857142857,1,1.0,52000,120,-0.0011248593925758943,1.048406139315229,10708000.0,1.0708
2024-01-10 13:30:00,88900.0,89000.0,88700.0,88900.0,138100,87184.0,84128.5,300.0,385.7142857142857,1,1.0,52000,120,0.0011261261261261701,1.049586776859503,10720000.0,1.072
2024-01-10 13:45:00,89000.0,89300.0,88900.0,89200.0,201000,87248.0,84171.5,400.0,392.85714285714283,1,1.0,52000,120,0.003374578177727683,1.0531286894923246,10756000.0,1.0756
2024-01-10 14:00:00,89200.0,89500.0,89200.0,89400.0,118400,87316.0,84215.5,300.0,414.2857142857143,1,1.0,52000,120,0.0022421524663676085,1.0554899645808724,10780000.0,1.078
2024-01-10 14:15:00,89400.0,89500.0,89000.0,89000.0,109400,87378.0,84258.0,500.0,414.2857142857143,1,1.0,52000,120,-0.004474272930648726,1.0507674144037769,10732000.0,1.0732
2024-01-10 14:45:00,89500.0,89500.0,89500.0,89500.0,0,87450.0,84303.0,0.0,392.85714285714283,1,1.0,52000,120,0.00561797752808979,1.0566706021251462,10792000.0,1.0792
2024-01-11 09:15:00,89500.0,89500.0,89100.0,89100.0,42500,87512.0,84344.5,400.0,392.85714285714283,1,1.0,52000,120,-0.004469273743016755,1.0519480519480506,10744000.0,1.0744
2024-01-11 09:30:00,89100.0,89200.0,88600.0,88900.0,56400,87566.0,84385.0,600.0,400.0,1,1.0,52000,120,-0.002244668911335568,1.0495867768595029,10720000.0,1.072
2024-01-11 09:45:00,88900.0,89200.0,88900.0,89200.0,36500,87620.0,84426.5,300.0,350.0,1,1.0,52000,120,0.003374578177727683,1.0531286894923244,10756000.0,1.0756
2024-01-11 10:00:00,89200.0,89400.0,89200.0,89300.0,14900,87674.0,84470.0,200.0,328.57142857142856,1,1.0,52000,120,0.0011210762331839152,1.0543093270365984,10768000.0,1.0768
2024-01-11 10:15:00,89300.0,89500.0,89300.0,89500.0,116100,87734.0,84514.5,200.0,321.42857142857144,1,1.0,52000,120,0.002239641657334923,1.0566706021251464,10792000.0,1.0792
2024-01-11 10:30:00,89500.0,90000.0,89400.0,89800.0,185500,87800.0,84558.5,600.0,350.0,1,1.0,52000,120,0.003351955307262511,1.060212514757968,10828000.0,1.0828
2024-01-11 10:45:00,89800.0,90000.0,89600.0,89900.0,74500,87866.0,84603.5,400.0,357.14285714285717,1,1.0,52000,120,0.00111358574610243,1.0613931523022417,10840000.0,1.084
2024-01-11 11:00:00,89900.0,90000.0,89700.0,89900.0,105700,87930.0,84648.5,300.0,342.85714285714283,1,1.0,52000,120,0.0,1.0613931523022417,10840000.0,1.084
2024-01-11 11:15:00,89900.0,89900.0,89600.0,89700.0,81300,87994.0,84688.5,300.0,342.85714285714283,1,1.0,52000,120,-0.0022246941045606095,1.059031877213694,10816000.0,1.0816
2024-01-11 13:00:00,89600.0,89700.0,89400.0,89600.0,142300,88058.0,84728.5,300.0,342.85714285714283,1,1.0,52000,120,-0.0011148272017836858,1.0578512396694202,10804000.0,1.0804
2024-01-11 13:15:00,89600.0,89700.0,89400.0,89500.0,152700,88120.0,84768.5,300.0,335.7142857142857,1,1.0,52000,120,-0.0011160714285713969,1.0566706021251464,10792000.0,1.0792
2024-01-11 13:30:00,89500.0,89600.0,89200.0,89400.0,177900,88180.0,84809.0,400.0,342.85714285714283,1,1.0,52000,120,-0.0011173184357542443,1.0554899645808724,10780000.0,1.078
2024-01-11 13:45:00,89300.0,89400.0,89000.0,89300.0,125000,88232.0,84848.5,400.0,335.7142857142857,1,1.0,52000,120,-0.0011185682326622093,1.0543093270365984,10768000.0,1.0768
2024-01-11 14:00:00,89200.0,89400.0,89000.0,89000.0,85900,88278.0,84887.0,400.0,364.2857142857143,1,1.0,52000,120,-0.0033594624860022737,1.0507674144037766,10732000.0,1.0732
2024-01-11 14:15:00,89100.0,89200.0,88700.0,88800.0,118400,88318.0,84924.5,500.0,371.42857142857144,1,1.0,52000,120,-0.0022471910112359383,1.0484061393152289,10708000.0,1.0708
2024-01-11 14:45:00,89300.0,89300.0,89300.0,89300.0,77500,88376.0,84964.5,0.0,328.57142857142856,1,1.0,52000,120,0.005630630630630629,1.0543093270365984,10768000.0,1.0768
2024-01-12 09:15:00,88100.0,88200.0,87400.0,87500.0,119400,88398.0,84995.0,800.0,364.2857142857143,1,1.0,52000,120,-0.02015677491601342,1.0330578512396682,10552000.0,1.0552
2024-01-12 09:30:00,87500.0,87900.0,87500.0,87600.0,96900,88414.0,85025.5,400.0,378.57142857142856,1,1.0,52000,120,0.0011428571428571122,1.034238488783942,10564000.0,1.0564
2024-01-12 09:45:00,87700.0,87700.0,87600.0,87700.0,36300,88430.0,85057.0,100.0,371.42857142857144,1,1.0,52000,120,0.0011415525114155667,1.035419126328216,10576000.0,1.0576
2024-01-12 10:00:00,87700.0,88200.0,87500.0,88200.0,123700,88454.0,85091.5,700.0,378.57142857142856,1,1.0,52000,120,0.005701254275940704,1.0413223140495855,10636000.0,1.0636
2024-01-12 10:15:00,88200.0,88300.0,88000.0,88200.0,31500,88472.0,85125.0,300.0,371.42857142857144,1,1.0,52000,120,0.0,1.0413223140495855,10636000.0,1.0636
2024-01-12 10:30:00,88200.0,88400.0,88100.0,88400.0,116700,88496.0,85159.0,300.0,371.42857142857144,1,1.0,52000,120,0.0022675736961450532,1.0436835891381333,10660000.0,1.066
2024-01-12 10:45:00,88400.0,89000.0,88400.0,88400.0,105100,88518.0,85192.0,600.0,392.85714285714283,1,1.0,52000,120,0.0,1.0436835891381333,10660000.0,1.066
2024-01-12 11:00:00,88400.0,88700.0,88200.0,88700.0,93100,88546.0,85223.0,500.0,407.14285714285717,1,1.0,52000,120,0.0033936651583710287,1.047225501770955,10696000.0,1.0696
2024-01-12 11:15:00,88700.0,88900.0,88300.0,88900.0,147400,88576.0,85255.5,600.0,428.57142857142856,1,1.0,52000,120,0.0022547914317925244,1.0495867768595029,10720000.0,1.072
2024-01-12 13:00:00,88800.0,88900.0,88300.0,88600.0,133100,88602.0,85285.5,600.0,442.85714285714283,1,1.0,52000,120,-0.003374578177727794,1.046044864226681,10684000.0,1.0684
2024-01-12 13:15:00,88600.0,88900.0,88500.0,88800.0,153900,88634.0,85317.0,400.0,442.85714285714283,1,1.0,52000,120,0.0022573363431150906,1.0484061393152289,10708000.0,1.0708
2024-01-12 13:30:00,88800.0,88900.0,88600.0,88900.0,150900,88664.0,85349.5,300.0,435.7142857142857,1,1.0,52000,120,0.0011261261261261701,1.0495867768595029,10720000.0,1.072
2024-01-12 13:45:00,89000.0,89500.0,88800.0,89400.0,288500,88704.0,85384.5,700.0,450.0,1,1.0,52000,120,0.0056242969628796935,1.0554899645808724,10780000.0,1.078
2024-01-12 14:00:00,89400.0,89500.0,88900.0,89300.0,113600,88742.0,85419.0,600.0,492.85714285714283,1,1.0,52000,120,-0.0011185682326622093,1.0543093270365984,10768000.0,1.0768
2024-01-12 14:15:00,89200.0,89400.0,88900.0,89300.0,184900,88778.0,85453.5,500.0,471.42857142857144,1,1.0,52000,120,0.0,1.0543093270365984,10768000.0,1.0768
2024-01-12 14:45:00,88700.0,88700.0,88700.0,88700.0,50200,88796.0,85485.0,0.0,442.85714285714283,1,1.0,52000,120,-0.006718924972004436,1.047225501770955,10696000.0,1.0696
2024-01-15 09:15:00,89000.0,89500.0,89000.0,89400.0,101600,88828.0,85521.0,500.0,471.42857142857144,1,1.0,52000,120,0.007891770011273946,1.0554899645808724,10780000.0,1.078
2024-01-15 09:30:00,89400.0,89500.0,89300.0,89300.0,32200,88858.0,85555.0,200.0,435.7142857142857,1,1.0,52000,120,-0.0011185682326622093,1.0543093270365984,10768000.0,1.0768
2024-01-15 09:45:00,89300.0,89400.0,89000.0,89300.0,36200,88894.0,85589.0,400.0,442.85714285714283,1,1.0,52000,120,0.0,1.0543093270365984,10768000.0,1.0768
2024-01-15 10:00:00,89200.0,89300.0,89100.0,89100.0,19800,88926.0,85622.5,200.0,435.7142857142857,1,1.0,52000,120,-0.002239641657334812,1.0519480519480506,10744000.0,1.0744
2024-01-15 10:15:00,89200.0,89300.0,89200.0,89200.0,19000,88960.0,85656.5,100.0,400.0,1,1.0,52000,120,0.001122334455667895,1.0531286894923246,10756000.0,1.0756
2024-01-15 10:30:00,89200.0,89300.0,89200.0,89200.0,47400,88990.0,85689.5,100.0,371.42857142857144,1,1.0,52000,120,0.0,1.0531286894923246,10756000.0,1.0756
2024-01-15 10:45:00,89200.0,89300.0,89200.0,89300.0,18400,89002.0,85722.0,100.0,335.7142857142857,1,1.0,52000,120,0.0011210762331839152,1.0543093270365986,10768000.0,1.0768
2024-01-15 11:00:00,89300.0,89400.0,89300.0,89400.0,31900,89018.0,85755.5,100.0,300.0,1,1.0,52000,120,0.0011198208286673506,1.0554899645808724,10780000.0,1.078
2024-01-15 11:15:00,89400.0,89400.0,89000.0,89000.0,49300,89026.0,85785.5,400.0,300.0,1,1.0,52000,120,-0.004474272930648726,1.0507674144037769,10732000.0,1.0732
2024-01-15 13:00:00,89000.0,89400.0,88900.0,89400.0,72900,89038.0,85818.5,500.0,314.2857142857143,1,1.0,52000,120,0.004494382022471877,1.0554899645808724,10780000.0,1.078
2024-01-15 13:15:00,89400.0,89500.0,89200.0,89500.0,197800,89052.0,85852.0,300.0,285.7142857142857,1,1.0,52000,120,0.0011185682326622093,1.0566706021251464,10792000.0,1.0792
2024-01-15 13:30:00,89500.0,89600.0,89400.0,89600.0,208900,89066.0,85885.0,200.0,257.14285714285717,1,1.0,52000,120,0.0011173184357542443,1.0578512396694204,10804000.0,1.0804
2024-01-15 13:45:00,89600.0,90100.0,89600.0,90000.0,449500,89090.0,85920.0,500.0,257.14285714285717,1,1.0,52000,120,0.0044642857142858094,1.0625737898465162,10852000.0,1.0852
2024-01-15 14:00:00,90100.0,90100.0,89600.0,89700.0,241200,89106.0,85953.5,500.0,292.85714285714283,1,1.0,52000,120,-0.0033333333333332993,1.0590318772136944,10816000.0,1.0816
2024-01-15 14:15:00,89700.0,90000.0,89600.0,89900.0,176700,89120.0,85988.0,400.0,285.7142857142857,1,1.0,52000,120,0.0022296544035673715,1.0613931523022422,10840000.0,1.084
2024-01-15 14:45:00,90000.0,90000.0,90000.0,90000.0,0,89132.0,86023.0,0.0,271.42857142857144,1,1.0,52000,120,0.0011123470522802492,1.062573789846516,10852000.0,1.0852
2024-01-16 09:15:00,89000.0,89500.0,89000.0,89500.0,41500,89142.0,86056.0,500.0,278.57142857142856,1,1.0,52000,120,-0.005555555555555536,1.0566706021251464,10792000.0,1.0792
2024-01-16 09:30:00,89400.0,89500.0,88900.0,89000.0,74600,89132.0,86086.0,600.0,307.14285714285717,1,1.0,52000,120,-0.005586592178770999,1.0507674144037769,10732000.0,1.0732
2024-01-16 09:45:00,89000.0,89200.0,89000.0,89100.0,32600,89132.0,86117.0,200.0,314.2857142857143,1,1.0,52000,120,0.0011235955056179137,1.0519480519480506,10744000.0,1.0744
2024-01-16 10:00:00,89200.0,89300.0,89100.0,89200.0,41500,89138.0,86147.0,200.0,321.42857142857144,1,1.0,52000,120,0.001122334455667895,1.0531286894923246,10756000.0,1.0756
2024-01-16 10:15:00,89200.0,89400.0,89100.0,89300.0,45800,89140.0,86178.5,300.0,335.7142857142857,1,1.0,52000,120,0.0011210762331839152,1.0543093270365986,10768000.0,1.0768
2024-01-16 10:30:00,89400.0,89400.0,89100.0,89400.0,50600,89142.0,86211.0,300.0,350.0,1,1.0,52000,120,0.0011198208286673506,1.0554899645808724,10780000.0,1.078
2024-01-16 10:45:00,89300.0,89600.0,89300.0,89600.0,67700,89144.0,86245.5,300.0,342.85714285714283,1,1.0,52000,120,0.0022371364653244186,1.0578512396694202,10804000.0,1.0804
2024-01-16 11:00:00,89600.0,89800.0,89400.0,89400.0,49500,89136.0,86279.0,400.0,335.7142857142857,1,1.0,52000,120,-0.0022321428571429047,1.0554899645808724,10780000.0,1.078
2024-01-16 11:15:00,89500.0,90000.0,89400.0,90000.0,63900,89138.0,86316.5,600.0,357.14285714285717,1,1.0,52000,120,0.006711409395973256,1.062573789846516,10852000.0,1.0852
2024-01-16 13:00:00,90000.0,90000.0,89600.0,89700.0,45300,89134.0,86353.0,400.0,371.42857142857144,1,1.0,52000,120,-0.0033333333333332993,1.0590318772136942,10816000.0,1.0816
2024-01-16 13:15:00,89800.0,90100.0,89700.0,89800.0,275300,89136.0,86389.5,400.0,364.2857142857143,1,1.0,52000,120,0.0011148272017837968,1.0602125147579682,10828000.0,1.0828
2024-01-16 13:30:00,89800.0,90000.0,89800.0,89800.0,76500,89140.0,86426.0,200.0,342.85714285714283,1,1.0,52000,120,0.0,1.0602125147579682,10828000.0,1.0828
2024-01-16 13:45:00,89900.0,89900.0,89600.0,89800.0,79900,89146.0,86462.5,300.0,335.7142857142857,1,1.0,52000,120,0.0,1.0602125147579682,10828000.0,1.0828
2024-01-16 14:00:00,89900.0,89900.0,89500.0,89800.0,75100,89154.0,86499.0,400.0,364.2857142857143,1,1.0,52000,120,0.0,1.0602125147579682,10828000.0,1.0828
2024-01-16 14:15:00,89800.0,90100.0,89800.0,90000.0,264400,89168.0,86536.5,300.0,350.0,1,1.0,52000,120,0.00222717149220486,1.062573789846516,10852000.0,1.0852
2024-01-16 14:45:00,90000.0,90000.0,90000.0,90000.0,0,89188.0,86572.5,0.0,307.14285714285717,1,1.0,52000,120,0.0,1.062573789846516,10852000.0,1.0852
2024-01-17 09:15:00,89000.0,90000.0,89000.0,89500.0,44900,89202.0,86606.5,1000.0,364.2857142857143,1,1.0,52000,120,-0.005555555555555536,1.0566706021251464,10792000.0,1.0792
2024-01-17 09:30:00,89500.0,90000.0,89500.0,89900.0,34000,89214.0,86641.5,500.0,385.7142857142857,1,1.0,52000,120,0.004469273743016755,1.061393152302242,10840000.0,1.084
2024-01-17 09:45:00,89900.0,90000.0,89600.0,89600.0,55100,89256.0,86675.5,400.0,392.85714285714283,1,1.0,52000,120,-0.0033370411568409697,1.0578512396694202,10804000.0,1.0804
2024-01-17 10:00:00,89700.0,90000.0,89400.0,89700.0,67400,89298.0,86709.0,600.0,414.2857142857143,1,1.0,52000,120,0.0011160714285713969,1.059031877213694,10816000.0,1.0816
2024-01-17 10:15:00,89700.0,90000.0,89500.0,89900.0,92100,89342.0,86744.0,500.0,428.57142857142856,1,1.0,52000,120,0.0022296544035673715,1.0613931523022417,10840000.0,1.084
2024-01-17 10:30:00,90000.0,90100.0,89800.0,90100.0,118300,89380.0,86780.0,300.0,421.42857142857144,1,1.0,52000,120,0.0022246941045607205,1.0637544273907897,10864000.0,1.0864
2024-01-17 10:45:00,90000.0,90300.0,90000.0,90300.0,109600,89422.0,86817.5,300.0,400.0,1,1.0,52000,120,0.002219755826859071,1.0661157024793375,10888000.0,1.0888
2024-01-17 11:00:00,90300.0,90500.0,90200.0,90500.0,91600,89464.0,86853.0,300.0,392.85714285714283,1,1.0,52000,120,0.00221483942414169,1.0684769775678853,10912000.0,1.0912
2024-01-17 11:15:00,90500.0,91000.0,90400.0,90900.0,134800,89514.0,86889.5,600.0,407.14285714285717,1,1.0,52000,120,0.0044198895027625085,1.073199527744981,10960000.0,1.096
2024-01-17 13:00:00,91000.0,91000.0,90800.0,90900.0,112400,89558.0,86925.0,200.0,407.14285714285717,1,1.0,52000,120,0.0,1.073199527744981,10960000.0,1.096
2024-01-17 13:15:00,91000.0,91000.0,90700.0,90900.0,116200,89598.0,86961.5,300.0,407.14285714285717,1,1.0,52000,120,0.0,1.073199527744981,10960000.0,1.096
2024-01-17 13:30:00,90900.0,90900.0,90600.0,90600.0,129900,89638.0,86996.5,300.0,400.0,1,1.0,52000,120,-0.0033003300330033403,1.0696576151121593,10924000.0,1.0924
2024-01-17 13:45:00,90800.0,90900.0,90400.0,90700.0,168700,89676.0,87032.0,500.0,414.2857142857143,1,1.0,52000,120,0.001103752759381793,1.070838252656433,10936000.0,1.0936
2024-01-17 14:00:00,90500.0,90800.0,90300.0,90800.0,207000,89714.0,87068.0,500.0,450.0,1,1.0,52000,120,0.0011025358324145973,1.072018890200707,10948000.0,1.0948
2024-01-17 14:15:00,90800.0,90900.0,90500.0,90800.0,120100,89742.0,87103.0,400.0,407.14285714285717,1,1.0,52000,120,0.0,1.072018890200707,10948000.0,1.0948
2024-01-17 14:45:00,90900.0,90900.0,90900.0,90900.0,0,89774.0,87140.0,0.0,371.42857142857144,1,1.0,52000,120,0.0011013215859030367,1.0731995277449808,10960000.0,1.096
2024-01-18 09:15:00,90900.0,90900.0,90000.0,90900.0,42500,89806.0,87176.5,900.0,407.14285714285717,1,1.0,52000,120,0.0,1.0731995277449808,10960000.0,1.096
2024-01-18 09:30:00,90900.0,90900.0,90600.0,90800.0,85000,89848.0,87212.5,300.0,385.7142857142857,1,1.0,52000,120,-0.0011001100110010764,1.072018890200707,10948000.0,1.0948
2024-01-18 09:45:00,90700.0,90800.0,90600.0,90800.0,52300,89876.0,87249.0,200.0,364.2857142857143,1,1.0,52000,120,0.0,1.072018890200707,10948000.0,1.0948
2024-01-18 10:00:00,90800.0,91000.0,90700.0,91000.0,62200,89910.0,87287.0,300.0,364.2857142857143,1,1.0,52000,120,0.0022026431718060735,1.0743801652892548,10972000.0,1.0972
2024-01-18 10:15:00,91000.0,91000.0,90700.0,90900.0,55700,89942.0,87324.5,300.0,364.2857142857143,1,1.0,52000,120,-0.001098901098901095,1.0731995277449808,10960000.0,1.096
2024-01-18 10:30:00,90900.0,90900.0,90700.0,90900.0,66300,89978.0,87362.5,200.0,357.14285714285717,1,1.0,52000,120,0.0,1.0731995277449808,10960000.0,1.096
2024-01-18 10:45:00,90900.0,91000.0,90700.0,90900.0,68900,90012.0,87415.5,300.0,335.7142857142857,1,1.0,52000,120,0.0,1.0731995277449808,10960000.0,1.096
2024-01-18 11:00:00,90900.0,90900.0,90700.0,90800.0,70100,90044.0,87456.0,200.0,335.7142857142857,1,1.0,52000,120,-0.0011001100110010764,1.072018890200707,10948000.0,1.0948
2024-01-18 11:15:00,90800.0,91000.0,90800.0,90900.0,124600,90076.0,87496.0,200.0,328.57142857142856,1,1.0,52000,120,0.0011013215859030367,1.0731995277449808,10960000.0,1.096
2024-01-18 13:00:00,90800.0,91000.0,90700.0,90900.0,51000,90106.0,87535.5,300.0,328.57142857142856,1,1.0,52000,120,0.0,1.0731995277449808,10960000.0,1.096
2024-01-18 13:15:00,90800.0,91000.0,90800.0,91000.0,122400,90146.0,87576.5,200.0,307.14285714285717,1,1.0,52000,120,0.0011001100110010764,1.0743801652892546,10972000.0,1.0972
2024-01-18 13:30:00,91000.0,91000.0,90800.0,91000.0,55700,90178.0,87617.0,200.0,285.7142857142857,1,1.0,52000,120,0.0,1.0743801652892546,10972000.0,1.0972
2024-01-18 13:45:00,91000.0,91200.0,90900.0,91000.0,137000,90208.0,87657.0,300.0,278.57142857142856,1,1.0,52000,120,0.0,1.0743801652892546,10972000.0,1.0972
2024-01-18 14:00:00,91000.0,91200.0,91000.0,91100.0,124800,90238.0,87699.0,200.0,292.85714285714283,1,1.0,52000,120,0.001098901098901095,1.0755608028335286,10984000.0,1.0984
2024-01-18 14:15:00,91000.0,91100.0,90400.0,90500.0,186500,90248.0,87739.0,700.0,278.57142857142856,1,1.0,52000,120,-0.00658616904500553,1.068476977567885,10912000.0,1.0912
2024-01-18 14:45:00,91100.0,91100.0,91100.0,91100.0,183900,90276.0,87781.5,0.0,257.14285714285717,1,1.0,52000,120,0.006629834254143541,1.0755608028335284,10984000.0,1.0984
2024-01-19 09:15:00,91000.0,91000.0,90400.0,90900.0,30800,90296.0,87821.5,600.0,285.7142857142857,1,1.0,52000,120,-0.002195389681668547,1.0731995277449806,10960000.0,1.096
2024-01-19 09:30:00,90900.0,91000.0,90900.0,91000.0,58000,90316.0,87862.0,100.0,271.42857142857144,1,1.0,52000,120,0.0011001100110010764,1.0743801652892544,10972000.0,1.0972
2024-01-19 09:45:00,91000.0,91100.0,90800.0,90900.0,45900,90344.0,87901.5,300.0,271.42857142857144,1,1.0,52000,120,-0.001098901098901095,1.0731995277449804,10960000.0,1.096
2024-01-19 10:00:00,90900.0,91000.0,90800.0,91000.0,39200,90384.0,87940.5,200.0,271.42857142857144,1,1.0,52000,120,0.0011001100110010764,1.0743801652892542,10972000.0,1.0972
2024-01-19 10:15:00,91000.0,91000.0,90900.0,91000.0,46800,90422.0,87979.0,100.0,257.14285714285717,1,1.0,52000,120,0.0,1.0743801652892542,10972000.0,1.0972
2024-01-19 10:30:00,91000.0,91200.0,91000.0,91200.0,78800,90462.0,88018.0,200.0,257.14285714285717,1,1.0,52000,120,0.00219780219780219,1.076741440377802,10996000.0,1.0996
2024-01-19 10:45:00,91000.0,91400.0,91000.0,91400.0,77700,90504.0,88057.5,400.0,271.42857142857144,1,1.0,52000,120,0.002192982456140413,1.0791027154663497,11020000.0,1.102
2024-01-19 11:00:00,91400.0,91900.0,91400.0,91700.0,122100,90550.0,88100.0,500.0,285.7142857142857,1,1.0,52000,120,0.003282275711159688,1.0826446280991713,11056000.0,1.1056
2024-01-19 11:15:00,91700.0,92000.0,91600.0,92000.0,67000,90598.0,88142.5,400.0,300.0,1,1.0,52000,120,0.0032715376226826187,1.086186540731993,11092000.0,1.1092
2024-01-19 13:00:00,91900.0,92000.0,91700.0,92000.0,56400,90650.0,88186.0,300.0,307.14285714285717,1,1.0,52000,120,0.0,1.086186540731993,11092000.0,1.1092
2024-01-19 13:15:00,91900.0,92500.0,91800.0,92400.0,285800,90698.0,88230.5,700.0,335.7142857142857,1,1.0,52000,120,0.004347826086956497,1.0909090909090886,11140000.0,1.114
2024-01-19 13:30:00,92400.0,92500.0,92100.0,92300.0,102100,90750.0,88274.5,400.0,350.0,1,1.0,52000,120,-0.0010822510822511289,1.0897284533648146,11128000.0,1.1128
2024-01-19 13:45:00,92400.0,92400.0,91800.0,92300.0,123000,90800.0,88318.5,600.0,342.85714285714283,1,1.0,52000,120,0.0,1.0897284533648146,11128000.0,1.1128
2024-01-19 14:00:00,92000.0,92500.0,92000.0,92400.0,133500,90852.0,88362.5,500.0,378.57142857142856,1,1.0,52000,120,0.0010834236186347823,1.0909090909090884,11140000.0,1.114
2024-01-19 14:15:00,92500.0,93000.0,92400.0,92900.0,199100,90914.0,88408.5,600.0,378.57142857142856,1,1.0,52000,120,0.005411255411255311,1.0968122786304577,11200000.0,1.12
2024-01-19 14:45:00,92600.0,92600.0,92600.0,92600.0,100700,90970.0,88452.0,0.0,371.42857142857144,1,1.0,52000,120,-0.0032292787944026013,1.093270365997636,11164000.0,1.1164
2024-01-22 09:15:00,93500.0,93500.0,92700.0,93000.0,25200,91030.0,88498.0,800.0,407.14285714285717,1,1.0,52000,120,0.004319654427645814,1.0979929161747315,11212000.0,1.1212
2024-01-22 09:30:00,93000.0,93500.0,93000.0,93100.0,107200,91092.0,88544.0,500.0,428.57142857142856,1,1.0,52000,120,0.0010752688172042113,1.0991735537190053,11224000.0,1.1224
2024-01-22 09:45:00,93200.0,93300.0,93000.0,93000.0,26700,91162.0,88589.5,300.0,442.85714285714283,1,1.0,52000,120,-0.0010741138560687036,1.0979929161747315,11212000.0,1.1212
2024-01-22 10:00:00,93000.0,93300.0,93000.0,93200.0,75100,91228.0,88636.0,300.0,450.0,1,1.0,52000,120,0.0021505376344086446,1.1003541912632793,11236000.0,1.1236
2024-01-22 10:15:00,93100.0,93200.0,92900.0,93000.0,55300,91296.0,88681.0,300.0,442.85714285714283,1,1.0,52000,120,-0.0021459227467811592,1.0979929161747315,11212000.0,1.1212
2024-01-22 10:30:00,93000.0,93100.0,92800.0,93000.0,59400,91362.0,88725.0,300.0,428.57142857142856,1,1.0,52000,120,0.0,1.0979929161747315,11212000.0,1.1212
2024-01-22 10:45:00,93000.0,93100.0,93000.0,93000.0,66500,91424.0,88767.5,100.0,407.14285714285717,1,1.0,52000,120,0.0,1.0979929161747315,11212000.0,1.1212
2024-01-22 11:00:00,93000.0,93100.0,92800.0,92900.0,57300,91480.0,88811.5,300.0,407.14285714285717,1,1.0,52000,120,-0.0010752688172043223,1.0968122786304575,11200000.0,1.12
2024-01-22 11:15:00,92900.0,93100.0,92900.0,93000.0,37500,91534.0,88855.5,200.0,371.42857142857144,1,1.0,52000,120,0.0010764262648008671,1.0979929161747315,11212000.0,1.1212
2024-01-22 13:00:00,92900.0,93100.0,92900.0,93000.0,51900,91584.0,88900.0,200.0,357.14285714285717,1,1.0,52000,120,0.0,1.0979929161747315,11212000.0,1.1212
2024-01-22 13:15:00,93000.0,93100.0,92900.0,93000.0,105500,91626.0,88943.5,200.0,328.57142857142856,1,1.0,52000,120,0.0,1.0979929161747315,11212000.0,1.1212
2024-01-22 13:30:00,93000.0,93000.0,92800.0,92800.0,112300,91664.0,88985.0,200.0,307.14285714285717,1,1.0,52000,120,-0.0021505376344086446,1.0956316410861837,11188000.0,1.1188
2024-01-22 13:45:00,92900.0,92900.0,92600.0,92700.0,75900,91700.0,89026.0,300.0,285.7142857142857,1,1.0,52000,120,-0.0010775862068965747,1.0944510035419097,11176000.0,1.1176
2024-01-22 14:00:00,92800.0,92900.0,92700.0,92900.0,37100,91746.0,89068.0,200.0,300.0,1,1.0,52000,120,0.0021574973031284195,1.0968122786304575,11200000.0,1.12
2024-01-22 14:15:00,92900.0,93000.0,92800.0,92900.0,125700,91790.0,89108.5,200.0,257.14285714285717,1,1.0,52000,120,0.0,1.0968122786304575,11200000.0,1.12
2024-01-22 14:45:00,92000.0,92000.0,92000.0,92000.0,77300,91814.0,89141.5,0.0,221.42857142857142,1,1.0,52000,120,-0.009687836383207804,1.0861865407319924,11092000.0,1.1092
2024-01-23 09:15:00,92100.0,92400.0,91500.0,91700.0,28800,91832.0,89173.0,900.0,264.2857142857143,1,1.0,52000,120,-0.003260869565217428,1.0826446280991706,11056000.0,1.1056
2024-01-23 09:30:00,91800.0,92000.0,91500.0,91500.0,32900,91844.0,89202.5,500.0,278.57142857142856,1,1.0,52000,120,-0.0021810250817884125,1.0802833530106228,11032000.0,1.1032
2024-01-23 09:45:00,91500.0,91500.0,91200.0,91500.0,49500,91856.0,89230.5,300.0,278.57142857142856,1,1.0,52000,120,0.0,1.0802833530106228,11032000.0,1.1032
2024-01-23 10:00:00,91500.0,91500.0,91300.0,91400.0,25300,91868.0,89257.5,200.0,271.42857142857144,1,1.0,52000,120,-0.0010928961748634114,1.0791027154663488,11020000.0,1.102
2024-01-23 10:15:00,91300.0,91400.0,91100.0,91100.0,31000,91874.0,89283.5,300.0,285.7142857142857,1,1.0,52000,120,-0.003282275711159688,1.0755608028335273,10984000.0,1.0984
2024-01-23 10:30:00,91100.0,91400.0,91000.0,91400.0,16800,91882.0,89312.0,400.0,292.85714285714283,1,1.0,52000,120,0.003293084522502765,1.079102715466349,11020000.0,1.102
2024-01-23 10:45:00,91300.0,91300.0,91100.0,91300.0,31600,91890.0,89340.0,200.0,292.85714285714283,1,1.0,52000,120,-0.001094091903719896,1.0779220779220753,11008000.0,1.1008
2024-01-23 11:00:00,91200.0,91300.0,91200.0,91200.0,16700,91896.0,89366.5,100.0,285.7142857142857,1,1.0,52000,120,-0.0010952902519167917,1.0767414403778013,10996000.0,1.0996
2024-01-23 11:15:00,91300.0,91300.0,90600.0,90800.0,67800,91894.0,89391.0,700.0,321.42857142857144,1,1.0,52000,120,-0.004385964912280715,1.0720188902007057,10948000.0,1.0948
2024-01-23 13:00:00,90800.0,90800.0,90400.0,90400.0,124800,91886.0,89413.5,400.0,335.7142857142857,1,1.0,52000,120,-0.004405286343612369,1.0672963400236102,10900000.0,1.09
2024-01-23 13:15:00,90400.0,90700.0,90400.0,90600.0,83400,91880.0,89437.0,300.0,335.7142857142857,1,1.0,52000,120,0.0022123893805310324,1.069657615112158,10924000.0,1.0924
2024-01-23 13:30:00,90600.0,91000.0,90600.0,91000.0,115400,91882.0,89462.0,400.0,350.0,1,1.0,52000,120,0.004415011037527616,1.0743801652892535,10972000.0,1.0972
2024-01-23 13:45:00,90900.0,91200.0,90800.0,91000.0,107800,91882.0,89487.0,400.0,364.2857142857143,1,1.0,52000,120,0.0,1.0743801652892535,10972000.0,1.0972
2024-01-23 14:00:00,90900.0,91200.0,90500.0,90900.0,110201,91880.0,89511.5,700.0,414.2857142857143,1,1.0,52000,120,-0.001098901098901095,1.0731995277449795,10960000.0,1.096
2024-01-23 14:15:00,90900.0,91500.0,90500.0,91400.0,189600,91888.0,89538.5,1000.0,421.42857142857144,1,1.0,52000,120,0.005500550055005604,1.079102715466349,11020000.0,1.102
2024-01-23 14:45:00,91500.0,91500.0,91500.0,91500.0,315099,91896.0,89567.0,0.0,385.7142857142857,1,1.0,52000,120,0.001094091903719896,1.0802833530106228,11032000.0,1.1032
2024-01-24 09:15:00,91600.0,92000.0,91500.0,91500.0,8400,91916.0,89594.5,500.0,400.0,1,1.0,52000,120,0.0,1.0802833530106228,11032000.0,1.1032
2024-01-24 09:30:00,91800.0,92000.0,91500.0,91600.0,27300,91926.0,89623.0,500.0,421.42857142857144,1,1.0,52000,120,0.0010928961748633004,1.0814639905548966,11044000.0,1.1044
2024-01-24 09:45:00,92000.0,92000.0,91500.0,91800.0,11900,91944.0,89652.0,500.0,435.7142857142857,1,1.0,52000,120,0.0021834061135370675,1.0838252656434444,11068000.0,1.1068
2024-01-24 10:00:00,91700.0,91700.0,91700.0,91700.0,3700,91958.0,89680.5,0.0,407.14285714285717,1,1.0,52000,120,-0.0010893246187363426,1.0826446280991706,11056000.0,1.1056
2024-01-24 10:15:00,91700.0,91900.0,91700.0,91700.0,18200,91974.0,89709.5,200.0,407.14285714285717,1,1.0,52000,120,0.0,1.0826446280991706,11056000.0,1.1056
2024-01-24 10:30:00,91700.0,91700.0,91000.0,91100.0,9700,91976.0,89735.5,700.0,450.0,1,1.0,52000,120,-0.0065430752453653485,1.075560802833527,10984000.0,1.0984
2024-01-24 10:45:00,91100.0,91300.0,91100.0,91100.0,3400,91978.0,89761.0,200.0,414.2857142857143,1,1.0,52000,120,0.0,1.075560802833527,10984000.0,1.0984
2024-01-24 11:00:00,91100.0,91400.0,91100.0,91300.0,2700,91980.0,89786.5,300.0,407.14285714285717,1,1.0,52000,120,0.002195389681668436,1.0779220779220748,11008000.0,1.1008
2024-01-24 11:15:00,91300.0,91500.0,91100.0,91200.0,10900,91976.0,89810.0,400.0,414.2857142857143,1,1.0,52000,120,-0.0010952902519167917,1.0767414403778008,10996000.0,1.0996
2024-01-24 13:00:00,91500.0,91800.0,91200.0,91700.0,58000,91976.0,89835.5,600.0,428.57142857142856,1,1.0,52000,120,0.005482456140350811,1.0826446280991704,11056000.0,1.1056
2024-01-24 13:15:00,91500.0,92000.0,91500.0,92000.0,135100,91976.0,89863.0,500.0,435.7142857142857,1,1.0,52000,120,0.0032715376226826187,1.0861865407319922,11092000.0,1.1092
2024-01-24 13:30:00,92000.0,92000.0,91400.0,91400.0,203500,91964.0,89887.5,600.0,428.57142857142856,1,1.0,52000,120,-0.006521739130434745,1.0791027154663488,11020000.0,1.102
2024-01-24 13:45:00,91500.0,91500.0,91400.0,91500.0,98700,91946.0,89912.0,100.0,364.2857142857143,1,1.0,52000,120,0.001094091903719896,1.0802833530106226,11032000.0,1.1032
2024-01-24 14:00:00,91500.0,91500.0,91000.0,91200.0,135700,91924.0,89934.5,500.0,400.0,1,1.0,52000,120,-0.003278688524590123,1.0767414403778008,10996000.0,1.0996
2024-01-24 14:15:00,91200.0,91400.0,90900.0,91200.0,66200,91902.0,89958.0,500.0,400.0,1,1.0,52000,120,0.0,1.0767414403778008,10996000.0,1.0996
2024-01-24 14:45:00,91100.0,91100.0,91100.0,91100.0,16400,91876.0,89981.5,0.0,364.2857142857143,1,1.0,52000,120,-0.0010964912280702066,1.0755608028335268,10984000.0,1.0984
